-0.0000000 -0.0000000 -0.0000000 -0.0000000 -0.0000000 -0.0000000 -0.0000000 -0.0000000 -0.0000000 -0.0000000 -0.0000000 -0.0000000 -0.0000000 -0.0000000 -0.0000000 -0.0000000 -0.0000000 -0.0000000 -0.0000000 -0.0000000 -0.0000000 -0.0000000 -0.0000000 -0.0000000 -0.0000000 -0.0000000 -0.0000000 -0.0000000 -0.0000000 -0.0000000 -0.0000000 -0.0000000 -0.0000000 -0.0000000 -0.0000000 -0.0000000 -0.0000000 -0.0000000 -0.0000000 -0.0000000 -0.0000000 -0.0000000 -0.0000000 -0.0000000 -0.0000000 -0.0000000 -0.0000000 -0.0000000 -0.0000000 -0.0000000 -0.0000000 -0.0000000 -0.0000000 -0.0000000 -0.0000000 -0.0000000 -0.0000000 -0.0000000 -0.0000000 -0.0000000 -0.0000000 -0.0000000 -0.0000000 -0.0000000 -0.0000000 -0.0000000 -0.0000000 -0.0000000 -0.0000000 -0.0000000 -0.0000000 -0.0000000 -0.0000000 -0.0000000 -0.0000000 -0.0000000 -0.0000000 -0.0000000 -0.0000000 -0.0000000 -0.0000000 -0.0000000 -0.0000000 -0.0000000 -0.0000000 -0.0000000 -0.0000000 -0.0000000 -0.0000000 -0.0000000 -0.0000000 -0.0000000 -0.0000000 -0.0000000 -0.0000000 -0.0000000 -0.0000000 -0.0000000 -0.0000000 -0.0000000 -0.0000000 -0.0000000 -0.0000000 -0.0000000 -0.0000000 -0.0000000 -0.0000000 -0.0000000 -0.0000000 -0.0000000 -0.0000000 -0.0000000 -0.0000000 -0.0000000 -0.0000000 -0.0000000 -0.0000000 -0.0000000 -0.0000000 -0.0000000 -0.0000000 -0.0000000 -0.0000000 -0.0000000 -0.0000000 -0.0000000 -0.0000000 -0.0000000 -0.0000000 -0.0000000 -0.0000000 -0.0000000 -0.0000000 -0.0000000 -0.0000000 -0.0000000 -0.0000000 -0.0000000 -0.0000000 -0.0000000 -0.0000000 -0.0000000 -0.0000000 -0.0000000 -0.0000000 -0.0000000 -0.0000000 -0.0000000 -0.0000000 -0.0000000 -0.0000000 -0.0000000 -0.0000000 -0.0000000 -0.0000000 -0.0000000 -0.0000000 -0.0000000 -0.0000000 -0.0000000 -0.0000000 -0.0000000 -0.0000000 -0.0000000 -0.0000000 -0.0000000 -0.0000000 -0.0000000 -0.0000000 -0.0000000 -0.0000000 -0.0000000 -0.0000000 -0.0000000 -0.0000000 -0.0000000 -0.0000000 -0.0000000 -0.0000000 -0.0000000 -0.0000000 -0.0000000 -0.0000000 -0.0000000
-0.0000000 -0.0000000 -0.0000000 -0.0000000 -0.0000000 -0.0000000 -0.0000000 -0.0000000 -0.0000000 -0.0000000 -0.0000000 -0.0000000 -0.0000000 -0.0000000 -0.0000000 -0.0000000 -0.0000000 -0.0000000 -0.0000000 -0.0000000 -0.0000000 -0.0000000 -0.0000000 -0.0000000 -0.0000000 -0.0000000 -0.0000000 -0.0000000 -0.0000000 -0.0000000 -0.0000000 -0.0000000 -0.0000000 -0.0000000 -0.0000000 -0.0000000 -0.0000000 -0.0000000 -0.0000000 -0.0000000 -0.0000000 -0.0000000 -0.0000000 -0.0000000 -0.0000000 -0.0000000 -0.0000000 -0.0000000 -0.0000000 -0.0000000 -0.0000000 -0.0000000 -0.0000000 -0.0000000 -0.0000000 -0.0000000 -0.0000000 -0.0000000 -0.0000000 -0.0000000 -0.0000000 -0.0000000 -0.0000000 -0.0000000 -0.0000000 -0.0000000 -0.0000000 -0.0000000 -0.0000000 -0.0000000 -0.0000000 -0.0000000 -0.0000000 -0.0000000 -0.0000000 -0.0000000 -0.0000000 -0.0000000 -0.0000000 -0.0000000 -0.0000000 -0.0000000 -0.0000000 -0.0000000 -0.0000000 -0.0000000 -0.0000000 -0.0000000 -0.0000000 -0.0000000 -0.0000000 -0.0000000 -0.0000000 -0.0000000 -0.0000000 -0.0000000 -0.0000000 -0.0000000 -0.0000000 -0.0000000 -0.0000000 -0.0000000 -0.0000000 -0.0000000 -0.0000000 -0.0000000 -0.0000000 -0.0000000 -0.0000000 -0.0000000 -0.0000000 -0.0000000 -0.0000000 -0.0000000 -0.0000000 -0.0000000 -0.0000000 -0.0000000 -0.0000000 -0.0000000 -0.0000000 -0.0000000 -0.0000000 -0.0000000 -0.0000000 -0.0000000 -0.0000000 -0.0000000 -0.0000000 -0.0000000 -0.0000000 -0.0000000 -0.0000000 -0.0000000 -0.0000000 -0.0000000 -0.0000000 -0.0000000 -0.0000000 -0.0000000 -0.0000000 -0.0000000 -0.0000000 -0.0000000 -0.0000000 -0.0000000 -0.0000000 -0.0000000 -0.0000000 -0.0000000 -0.0000000 -0.0000000 -0.0000000 -0.0000000 -0.0000000 -0.0000000 -0.0000000 -0.0000000 -0.0000000 -0.0000000 -0.0000000 -0.0000000 -0.0000000 -0.0000000 -0.0000000 -0.0000000 -0.0000000 -0.0000000 -0.0000000 -0.0000000 -0.0000000 -0.0000000 -0.0000000 -0.0000000 -0.0000000 -0.0000000 -0.0000000 -0.0000000 -0.0000000 -0.0000000 -0.0000000 -0.0000000 -0.0000000 -0.0000000
-0.0000013 -0.0000023 0.0000085 -0.0000116 0.0000104 0.0000022 -0.0000010 0.0000014 0.0000032 0.0000072 0.0000099 -0.0000261 0.0000382 -0.0000130 0.0001646 -0.0001157 0.0000074 -0.0000293 0.0000406 -0.0000036 0.0000188 -0.0000345 -0.0000855 0.0000586 -0.0000386 -0.0000252 0.0000268 -0.0000095 0.0000071 0.0000866 0.0000008 0.0000407 0.0000288 0.0000307 0.0000101 0.0000827 0.0000024 0.0000129 -0.0000594 0.0000522 -0.0000217 0.0000458 -0.0000118 0.0000252 0.0000045 0.0000707 -0.0000122 0.0000561 -0.0000118 0.0000161 0.0000176 0.0000882 -0.0000734 0.0001118 0.0001081 -0.0001427 0.0000368 0.0001371 0.0000212 0.0000784 -0.0000039 0.0000068 -0.0000007 0.0000737 -0.0000060 0.0000054 0.0000486 -0.0000343 0.0000532 0.0000928 -0.0003936 0.0004313 -0.0029587 0.0015902 -0.0000035 0.0000998 0.0001242 0.0001515 0.0000313 -0.0000352 0.0000349 0.0000237 -0.0000898 0.0002103 -0.0000795 0.0000083 0.0001199 -0.0000599 0.0000954 -0.0000420 0.0000699 -0.0000734 0.0000018 0.0000055 0.0000199 -0.0000199 0.0000035 0.0000272 0.0000648 -0.0001168 -0.0004658 0.0003027 0.0000524 0.0000023 -0.0000024 0.0000370 -0.0001728 0.0000927 0.0000044 0.0000345 0.0000573 -0.0000139 0.0000004 -0.0000312 -0.0000135 0.0000375 0.0000250 -0.0000422 0.0000183 0.0000019 0.0001494 -0.0000378 -0.0000120 0.0000592 0.0000076 0.0000452 0.0000153 0.0000421 0.0000025 0.0000288 -0.0000059 -0.0000176 0.0000489 0.0000403 0.0000877 -0.0001052 -0.0000117 0.0000650 -0.0000034 0.0000761 0.0000143 0.0000453 0.0001424 -0.0001925 0.0000029 0.0000400 -0.0000511 0.0000982 0.0000061 -0.0001478 0.0015678 0.0016798 0.0009638 -0.0009807 0.0000484 0.0000422 0.0000462 -0.0000139 0.0000172 0.0000374 0.0000599 0.0006964 0.0000805 -0.0003863 0.0000166 -0.0000162 0.0001624 -0.0001557 -0.0000122 0.0000739 0.0001564 -0.0000284 -0.0000044 0.0000826 0.0000830 -0.0001043 0.0000184 0.0000243 0.0000519 -0.0000342 -0.0000185 0.0000575 0.0000060 0.0000841
0.0000122 0.0000108 0.0000388 -0.0000252 0.0000057 0.0000656 -0.0000225 0.0000716 0.0000111 0.0000722 0.0000199 0.0000365 0.0000317 0.0000719 0.0000812 0.0000173 0.0000637 0.0000377 0.0000480 0.0000863 0.0000968 0.0000216 0.0000016 0.0001379 0.0003136 -0.0001854 0.0000424 0.0000690 0.0000130 0.0002909 -0.0000011 0.0001726 0.0000287 0.0002466 0.0000171 0.0002740 0.0000039 0.0000967 0.0000032 0.0000754 0.0000066 0.0001194 -0.0000164 0.0001819 0.0000030 0.0001891 -0.0000216 0.0001171 0.0000252 0.0000437 0.0000164 0.0002920 -0.0000586 0.0002118 -0.0000323 0.0001914 -0.0000272 0.0003011 0.0000135 0.0002027 -0.0000082 -0.0000068 0.0000081 0.0000735 0.0000028 -0.0000041 0.0000164 0.0000936 0.0008893 -0.0003362 0.0001028 -0.0000491 -0.0003002 0.0011490 -0.0000134 -0.0000173 0.0001564 0.0000702 0.0000049 -0.0000048 0.0000442 -0.0000253 -0.0002758 0.0003774 0.0003921 -0.0005105 0.0001448 -0.0000764 -0.0001375 0.0001958 0.0000357 0.0000444 0.0000131 0.0000644 0.0000364 0.0000773 -0.0000377 0.0001659 0.0001467 -0.0000490 0.0003047 -0.0001661 0.0001665 -0.0000324 -0.0000192 0.0001843 -0.0001537 0.0004714 0.0000041 0.0002318 -0.0000988 0.0003339 0.0000053 0.0000377 0.0000049 0.0001284 -0.0000280 0.0001032 0.0000532 0.0000633 0.0002191 0.0000976 -0.0000182 0.0001904 0.0000373 0.0001591 0.0000354 0.0001960 0.0000177 0.0001487 -0.0000035 0.0001856 0.0000019 0.0002116 0.0001212 -0.0001303 -0.0000035 0.0002102 -0.0001867 0.0004519 0.0000000 0.0001638 -0.0014845 0.0011464 0.0000294 0.0000200 -0.0001121 0.0002099 -0.0004936 0.0001706 0.0033901 -0.0042419 -0.0005051 0.0010267 0.0000389 0.0000740 0.0000953 -0.0000153 0.0000610 0.0001031 -0.0011117 0.0024342 -0.0005037 0.0000566 -0.0001576 0.0000163 -0.0000126 0.0001145 0.0000028 0.0000495 0.0001385 -0.0000922 -0.0000115 0.0000295 0.0001336 -0.0000847 0.0000370 0.0000129 -0.0000034 0.0000404 0.0000933 -0.0002371 -0.0000212 0.0000410
0.0000090 -0.0000031 -0.0000017 -0.0000041 -0.0000011 0.0000421 -0.0000180 0.0000408 0.0000040 0.0000369 0.0000086 0.0000052 0.0000941 -0.0000045 0.0000641 -0.0000372 0.0001036 0.0000688 -0.0000059 0.0000569 0.0000947 -0.0000393 0.0001122 0.0000025 0.0001337 -0.0000797 0.0000154 0.0000430 0.0000178 0.0001019 -0.0000028 0.0000716 -0.0000059 0.0001390 0.0000099 0.0000662 0.0000159 0.0000157 0.0000887 -0.0000254 0.0000032 0.0000405 -0.0000237 -0.0000055 -0.0000022 0.0000065 -0.0000127 0.0000327 0.0000320 -0.0000833 0.0000027 -0.0001009 -0.0001004 0.0001133 -0.0000840 0.0003817 -0.0000353 -0.0001300 0.0000390 -0.0000739 -0.0000032 -0.0001819 0.0000037 -0.0003109 -0.0000036 -0.0001252 -0.0000552 0.0000616 0.0008107 -0.0003447 0.0001303 0.0000771 -0.0016275 0.0028973 -0.0000097 -0.0003845 0.0000653 -0.0002797 0.0000145 -0.0001685 0.0000238 -0.0000981 -0.0002558 0.0000613 0.0003766 -0.0002684 0.0000430 -0.0001851 -0.0003085 0.0001242 -0.0000574 0.0001062 0.0000176 0.0000375 0.0000340 0.0000478 0.0000114 0.0001002 0.0000336 0.0000091 0.0004875 -0.0000813 -0.0001879 0.0002118 -0.0000706 0.0001674 0.0001008 0.0001943 0.0000133 0.0000534 -0.0001663 0.0002142 0.0000282 -0.0000303 -0.0000090 0.0000702 -0.0000385 0.0000909 0.0000428 -0.0000004 0.0001065 -0.0000503 -0.0000316 0.0001037 0.0000517 0.0000477 0.0000664 0.0000638 0.0000262 0.0000341 0.0000039 0.0000447 0.0000211 0.0000018 -0.0001230 0.0000357 -0.0000031 0.0000680 -0.0001365 0.0002344 0.0000130 -0.0000013 -0.0008408 0.0001038 0.0000055 0.0000455 0.0003068 -0.0001654 -0.0002911 0.0002813 0.0004875 -0.0041958 -0.0010890 0.0006453 0.0000491 -0.0000844 0.0000317 -0.0001053 0.0001169 -0.0001677 -0.0003943 0.0008778 0.0002521 -0.0005334 -0.0003927 0.0000857 -0.0002173 0.0001475 0.0000890 -0.0000558 0.0001148 -0.0001433 0.0000089 -0.0002753 -0.0000112 -0.0001432 0.0000478 -0.0001489 -0.0000435 -0.0000310 -0.0000473 -0.0003782 -0.0000091 -0.0001984
-0.0000499 -0.0000099 -0.0000779 -0.0000161 0.0000156 -0.0000993 -0.0000025 -0.0000828 0.0000232 -0.0001463 0.0000136 -0.0002202 0.0000475 -0.0000922 0.0000833 -0.0003293 0.0000880 -0.0000433 0.0000052 -0.0001502 -0.0000300 -0.0001533 0.0000122 -0.0001283 -0.0002197 0.0001713 0.0000033 -0.0001166 0.0000010 -0.0002761 -0.0000206 -0.0001517 -0.0000239 -0.0002465 -0.0000072 -0.0003247 0.0000228 -0.0001656 0.0000253 -0.0001145 0.0000681 -0.0001933 -0.0002198 -0.0000166 -0.0000010 -0.0002766 -0.0000269 -0.0001668 0.0000291 -0.0003005 0.0000016 -0.0006154 -0.0000409 -0.0001713 0.0000283 -0.0000297 0.0000399 -0.0005561 -0.0001031 -0.0002971 0.0000122 -0.0002770 0.0000062 -0.0004883 0.0000135 -0.0002612 0.0000561 -0.0002141 0.0012289 -0.0008672 -0.0006082 0.0001579 -0.0049554 0.0067723 -0.0000529 -0.0003732 0.0003236 -0.0004203 -0.0000204 -0.0002283 0.0000360 -0.0002037 -0.0001779 -0.0001324 0.0003450 -0.0003893 0.0000924 -0.0002215 0.0000238 -0.0001435 -0.0001750 0.0000241 0.0000128 -0.0000966 0.0000648 -0.0001439 -0.0000107 -0.0000653 0.0000882 -0.0002311 -0.0012521 0.0007871 -0.0005599 0.0003357 -0.0000276 -0.0001067 0.0001104 -0.0000799 0.0000654 -0.0003550 0.0000379 -0.0002176 -0.0000075 -0.0000723 0.0000184 -0.0001540 -0.0000565 -0.0000489 -0.0000079 -0.0001762 0.0000279 -0.0002704 -0.0000250 -0.0001807 0.0000355 -0.0001691 0.0000784 -0.0002226 0.0000237 -0.0001907 -0.0000195 -0.0003526 0.0000767 -0.0003339 -0.0001637 -0.0001178 0.0000074 -0.0002598 0.0001454 -0.0001910 0.0000457 -0.0002404 0.0005513 -0.0007179 -0.0000403 -0.0001056 0.0005489 -0.0004835 -0.0006442 0.0004991 0.0021586 -0.0028138 0.0009361 -0.0011653 0.0000800 -0.0002262 0.0000200 -0.0001423 0.0000908 -0.0003310 -0.0003602 -0.0004858 0.0005545 -0.0008248 -0.0000709 -0.0002230 -0.0001870 -0.0000447 0.0000763 -0.0001501 0.0001265 -0.0002108 0.0001440 -0.0003563 -0.0001737 -0.0000325 -0.0000042 -0.0001593 0.0000372 -0.0002101 -0.0000201 -0.0003045 -0.0000083 -0.0001270
-0.0000639 0.0000137 -0.0000638 -0.0000268 0.0000629 -0.0001634 0.0000118 -0.0001096 0.0000130 -0.0001479 0.0000104 -0.0002752 -0.0000133 -0.0000347 -0.0000787 -0.0000334 0.0000467 0.0000368 0.0000595 -0.0001679 -0.0000287 -0.0001072 0.0000536 -0.0001824 -0.0002141 0.0001667 0.0000141 -0.0000948 -0.0000009 -0.0001068 -0.0000118 -0.0000908 0.0000250 -0.0002060 0.0000069 -0.0001456 0.0000252 -0.0001137 -0.0000550 -0.0000245 -0.0000309 -0.0000426 0.0000465 -0.0000772 0.0000179 -0.0001334 -0.0000630 -0.0000836 0.0000667 -0.0002705 0.0000058 -0.0003210 -0.0000398 -0.0000623 0.0001836 -0.0003114 0.0000249 -0.0002291 -0.0000848 -0.0000651 0.0000168 -0.0002188 0.0000527 -0.0002985 0.0000079 -0.0002286 0.0000263 -0.0001613 0.0007744 -0.0004518 -0.0007492 0.0000333 -0.0044528 0.0047027 -0.0000413 -0.0001731 0.0004518 -0.0002685 -0.0000451 -0.0001740 0.0000765 -0.0001249 0.0000130 -0.0000519 0.0000036 -0.0001452 0.0000969 -0.0001368 -0.0001050 0.0001284 -0.0000182 -0.0001301 0.0000138 -0.0001056 0.0000219 -0.0000879 0.0000125 -0.0001009 0.0000365 -0.0002777 -0.0015973 0.0008967 -0.0003344 0.0002005 -0.0000031 -0.0001219 -0.0000899 -0.0001523 0.0001113 -0.0002169 0.0001949 -0.0002352 -0.0000539 -0.0000296 0.0000070 -0.0000896 -0.0001499 -0.0000036 0.0000124 -0.0001680 0.0000991 -0.0001995 -0.0000246 -0.0000804 0.0000531 -0.0000697 0.0000819 -0.0001361 0.0000201 -0.0001206 -0.0000095 -0.0002289 0.0000820 -0.0002018 -0.0002848 0.0001061 0.0000257 -0.0001727 0.0001161 -0.0001131 0.0000550 -0.0000910 0.0000514 -0.0002186 -0.0000758 -0.0000015 0.0003716 -0.0003936 -0.0004684 0.0008530 0.0016543 -0.0013289 -0.0012838 0.0010835 0.0000231 -0.0000304 -0.0000388 0.0000429 0.0000557 -0.0001149 -0.0011147 0.0012596 -0.0000661 -0.0001055 0.0000820 -0.0001227 -0.0001366 0.0000475 0.0000197 -0.0001428 0.0001357 -0.0001902 0.0001633 -0.0001020 -0.0000843 0.0000774 -0.0000884 -0.0000221 0.0000437 -0.0002072 0.0000212 -0.0003126 0.0000171 -0.0000061
-0.0000494 0.0000590 -0.0000110 -0.0000218 0.0000576 -0.0001024 0.0000039 -0.0000466 0.0000247 -0.0000411 0.0000004 -0.0001538 0.0000587 0.0000241 -0.0001856 0.0002802 0.0000975 0.0001722 0.0001430 -0.0001060 0.0000322 0.0000333 0.0000984 -0.0001863 -0.0002642 0.0000998 -0.0000054 0.0000418 0.0000135 0.0001876 -0.0000083 0.0000897 0.0000448 0.0000508 0.0000298 0.0001432 0.0000330 0.0000151 -0.0000008 0.0000381 -0.0000112 0.0000158 0.0001940 0.0000196 0.0000102 0.0001267 -0.0000233 0.0000456 0.0001103 -0.0001595 0.0000515 0.0000705 0.0000235 0.0000035 0.0003679 -0.0004436 0.0000117 0.0002909 0.0000725 0.0001679 0.0000135 -0.0001192 0.0000844 -0.0000301 -0.0000020 -0.0001329 -0.0000090 0.0000431 -0.0007198 0.0003649 -0.0005977 0.0004266 -0.0006774 -0.0000532 -0.0000065 -0.0001268 0.0002031 0.0000481 0.0000058 -0.0001583 -0.0000815 0.0001354 -0.0001060 0.0002027 0.0001162 -0.0003737 -0.0000011 -0.0000810 -0.0000888 0.0000986 0.0001193 -0.0000810 0.0000305 -0.0000342 -0.0000063 0.0000107 0.0000651 -0.0000015 -0.0001110 0.0000175 -0.0001773 0.0002585 0.0000159 0.0000380 0.0000076 -0.0000019 0.0000625 -0.0002172 0.0000646 0.0000328 0.0000091 -0.0000650 -0.0000169 0.0000037 -0.0000351 0.0000860 -0.0001804 0.0000997 0.0000137 -0.0000133 0.0001066 0.0000295 -0.0000107 0.0001018 0.0000894 0.0001008 0.0000968 0.0000440 0.0000259 0.0000532 0.0000380 0.0001134 0.0000550 0.0000642 0.0001700 -0.0000904 0.0000475 0.0000843 0.0000188 0.0001226 0.0000727 0.0000426 0.0003675 -0.0002283 0.0000080 0.0000384 0.0001815 -0.0000146 0.0001705 0.0003066 -0.0028515 0.0034547 -0.0031410 0.0011665 0.0000244 0.0001572 -0.0001710 0.0002432 0.0000415 0.0001821 -0.0010952 0.0015618 -0.0002262 0.0000903 0.0000584 0.0001630 0.0002315 -0.0001672 -0.0000042 -0.0000629 0.0000699 -0.0001192 0.0001055 0.0000011 0.0000229 0.0001149 -0.0000918 0.0000635 -0.0000122 -0.0000615 0.0002058 -0.0004818 0.0000047 -0.0000360
-0.0000559 0.0001054 -0.0000168 0.0000166 0.0000371 -0.0000753 0.0000018 -0.0000683 0.0000552 -0.0000518 0.0000131 -0.0001501 0.0001136 -0.0000337 -0.0001097 0.0000101 0.0002806 0.0000076 0.0001239 -0.0000963 0.0000810 -0.0001291 0.0000829 -0.0002537 0.0000196 -0.0002271 0.0000081 0.0000199 0.0000088 0.0000372 0.0000100 0.0000270 0.0000586 -0.0000036 0.0000263 -0.0000603 0.0000444 -0.0000383 0.0000089 -0.0000045 0.0000306 -0.0000055 0.0000331 0.0001128 -0.0000060 -0.0000350 0.0000201 -0.0000585 0.0001213 -0.0002696 0.0000547 -0.0002779 0.0000433 -0.0001725 0.0001405 -0.0001932 0.0000287 -0.0000709 0.0000348 -0.0000216 0.0000134 -0.0002675 0.0000687 -0.0003630 0.0000188 -0.0002739 -0.0000497 -0.0000229 0.0005083 -0.0014189 -0.0005629 0.0000954 0.0035313 -0.0024901 -0.0000460 -0.0004411 -0.0000273 -0.0002307 0.0000292 -0.0003063 -0.0000792 -0.0000553 -0.0001207 -0.0001353 0.0001989 -0.0000957 0.0000034 -0.0002473 0.0001006 -0.0002651 0.0000426 -0.0001095 0.0000418 -0.0000305 -0.0000010 0.0000157 0.0000253 0.0000194 -0.0001128 -0.0000004 0.0000629 0.0006292 0.0004330 -0.0002820 0.0000154 -0.0001093 0.0002461 -0.0002357 0.0000388 -0.0001386 -0.0001245 0.0000169 0.0000240 -0.0000428 -0.0000083 0.0000256 -0.0000633 -0.0000696 0.0000094 -0.0000748 0.0000916 -0.0001070 0.0000468 -0.0000991 0.0001000 0.0000036 0.0000975 -0.0000306 0.0000330 -0.0000153 0.0000302 0.0000850 -0.0000206 -0.0000269 0.0003700 -0.0001568 0.0000581 -0.0000096 0.0002755 -0.0002298 0.0000250 -0.0000230 -0.0002598 0.0002562 0.0002188 -0.0002216 0.0000470 0.0000250 0.0006933 -0.0008314 -0.0029579 0.0081389 -0.0015427 0.0003642 0.0000627 -0.0000818 -0.0000562 -0.0000582 -0.0000049 -0.0000002 -0.0005968 0.0006963 -0.0000866 -0.0001205 -0.0001144 -0.0000318 0.0002738 -0.0003122 0.0000559 -0.0001677 -0.0000169 -0.0002671 0.0000739 -0.0002215 -0.0001220 0.0000384 -0.0001217 -0.0000535 0.0000128 -0.0001542 0.0003285 -0.0004591 -0.0000455 -0.0002002
-0.0000868 0.0000726 -0.0000868 0.0000339 0.0000231 -0.0001375 0.0000153 -0.0001834 0.0000354 -0.0001825 0.0000285 -0.0003434 0.0001085 -0.0001185 0.0000332 -0.0003793 0.0002735 -0.0002283 0.0000807 -0.0002004 0.0000528 -0.0002406 0.0000872 -0.0003846 0.0002525 -0.0005187 0.0000127 -0.0001209 -0.0000116 -0.0003084 0.0000230 -0.0001962 0.0000478 -0.0003307 0.0000102 -0.0004289 0.0000514 -0.0001817 -0.0000044 -0.0001757 0.0000012 -0.0001114 0.0001843 -0.0004269 0.0000154 -0.0003803 0.0000102 -0.0002242 0.0001526 -0.0005194 0.0000197 -0.0008826 0.0000290 -0.0003620 -0.0001594 -0.0001317 0.0000300 -0.0007715 0.0000194 -0.0003221 0.0000244 -0.0004873 0.0000453 -0.0008233 0.0000567 -0.0005194 -0.0000625 -0.0002746 0.0012525 -0.0019907 0.0003784 -0.0011270 0.0020652 -0.0000644 -0.0000450 -0.0006899 0.0000632 -0.0006177 0.0000493 -0.0005372 0.0000248 -0.0003524 0.0001063 -0.0004662 -0.0005333 0.0004011 0.0000772 -0.0003690 0.0000266 -0.0003682 0.0000512 -0.0003112 0.0000399 -0.0001407 0.0000122 -0.0001345 0.0000702 -0.0001862 -0.0000768 -0.0001841 0.0002388 0.0002034 0.0004185 -0.0005872 0.0000406 -0.0003365 0.0001916 -0.0006350 0.0000269 -0.0003876 -0.0001398 -0.0001533 -0.0000158 -0.0001252 0.0000119 -0.0001097 0.0001004 -0.0003297 -0.0000149 -0.0002279 0.0000148 -0.0004059 0.0000820 -0.0004563 0.0000784 -0.0002173 0.0001119 -0.0002619 0.0000371 -0.0002334 0.0000376 -0.0002154 -0.0000415 -0.0003650 0.0000128 -0.0002292 0.0000848 -0.0003615 0.0000583 -0.0003607 -0.0000186 -0.0002382 -0.0018538 0.0002908 0.0003213 -0.0004957 -0.0001965 -0.0001234 0.0007941 -0.0013375 -0.0043056 0.0103097 0.0000248 0.0005491 0.0001132 -0.0004438 0.0000113 -0.0003353 0.0000419 -0.0003736 0.0004179 -0.0006121 0.0001145 -0.0003519 0.0001102 -0.0007629 0.0000719 -0.0002601 0.0001103 -0.0003341 0.0001850 -0.0004445 -0.0000054 -0.0002527 -0.0001215 -0.0001655 -0.0000986 -0.0002818 0.0000717 -0.0003681 0.0001742 -0.0004300 0.0000142 -0.0002205
-0.0001158 0.0000821 -0.0001094 0.0000262 0.0000137 -0.0001675 0.0000283 -0.0001940 0.0000394 -0.0002268 0.0000282 -0.0003939 0.0001259 -0.0001282 0.0000312 -0.0002995 0.0002152 -0.0002120 0.0001431 -0.0002617 -0.0000871 -0.0000600 0.0001502 -0.0003916 0.0000106 -0.0003718 0.0000306 -0.0001522 -0.0000178 -0.0001838 0.0000181 -0.0001836 0.0000261 -0.0003513 0.0000268 -0.0002856 0.0000482 -0.0001394 -0.0000037 -0.0001352 0.0000717 -0.0001828 0.0000369 -0.0003217 0.0000420 -0.0002393 0.0000809 -0.0002426 0.0001892 -0.0005203 0.0000508 -0.0006580 0.0000798 -0.0002997 0.0000308 -0.0003960 0.0000908 -0.0005471 0.0000963 -0.0002070 0.0000379 -0.0004294 0.0000718 -0.0006301 0.0000791 -0.0005201 -0.0000110 -0.0002867 -0.0003356 -0.0001398 -0.0002008 -0.0002072 -0.0004716 0.0012200 0.0000086 -0.0005726 0.0001107 -0.0002950 0.0000431 -0.0004921 -0.0000046 -0.0003229 0.0000951 -0.0002520 -0.0003573 0.0000556 -0.0000138 -0.0001254 0.0001243 -0.0003967 -0.0000148 -0.0002568 0.0000356 -0.0001868 0.0000359 -0.0002414 0.0000563 -0.0002125 0.0001659 -0.0004099 -0.0005987 0.0000670 0.0000888 -0.0006135 0.0000531 -0.0003771 0.0002472 -0.0008140 0.0000127 -0.0003037 -0.0001746 -0.0002190 0.0000586 -0.0002056 0.0000033 -0.0000408 -0.0000043 -0.0002607 -0.0000416 -0.0001944 0.0001356 -0.0004467 0.0000194 -0.0003397 0.0000788 -0.0001549 0.0001361 -0.0001989 0.0000874 -0.0002536 0.0000672 -0.0001658 0.0000353 -0.0003093 -0.0002799 -0.0002555 0.0001362 -0.0003442 -0.0001964 -0.0000530 -0.0000390 -0.0001231 -0.0020361 0.0004149 0.0002536 -0.0004796 0.0000070 -0.0003134 0.0005499 -0.0007649 -0.0073505 0.0111377 -0.0003534 0.0009054 0.0001117 -0.0003105 -0.0000034 -0.0001184 0.0000790 -0.0003226 0.0008680 -0.0015750 0.0001524 -0.0001216 0.0000825 -0.0005033 0.0001105 -0.0003687 0.0000984 -0.0002906 0.0003316 -0.0004657 -0.0000493 -0.0000487 -0.0000975 -0.0000085 -0.0000174 -0.0003360 0.0001238 -0.0003567 -0.0001583 -0.0000977 0.0000410 -0.0000599
-0.0000887 0.0001138 -0.0000725 0.0000223 0.0000227 -0.0001309 0.0000362 -0.0001355 0.0000600 -0.0001453 0.0000310 -0.0002765 0.0001371 -0.0000652 0.0001258 -0.0001665 0.0002291 -0.0001497 0.0001189 -0.0001554 -0.0001031 0.0000279 0.0001794 -0.0002080 -0.0001663 0.0000878 0.0000423 -0.0000616 0.0000001 0.0000863 0.0000221 -0.0000534 0.0000030 -0.0000856 0.0000397 0.0000076 0.0000430 -0.0000290 -0.0000552 0.0000280 0.0001599 -0.0001002 -0.0003403 0.0002821 0.0000536 0.0000022 0.0000928 -0.0001482 0.0001985 -0.0003672 0.0001234 -0.0002896 0.0000723 -0.0001100 0.0001195 -0.0001985 0.0001182 -0.0000952 0.0000229 0.0000435 0.0000415 -0.0003177 0.0001150 -0.0003523 0.0000588 -0.0003929 0.0000447 -0.0001394 -0.0008463 0.0006049 -0.0007393 0.0009354 -0.0019276 0.0011439 0.0000830 -0.0005114 -0.0001748 0.0003120 0.0000493 -0.0003979 -0.0000229 -0.0002238 0.0002141 -0.0005038 -0.0000494 -0.0000771 -0.0000492 -0.0001126 -0.0000390 -0.0003115 0.0000396 -0.0001705 0.0000350 -0.0001295 0.0000684 -0.0001861 0.0000499 -0.0001428 0.0001549 -0.0003830 -0.0008065 0.0004042 0.0000718 -0.0003416 0.0000017 -0.0001978 0.0000901 -0.0003573 0.0001324 -0.0002162 0.0000797 -0.0002496 0.0000714 -0.0001331 0.0000288 0.0000107 -0.0000822 -0.0001196 -0.0000162 -0.0000845 0.0002917 -0.0003524 -0.0000478 -0.0001081 0.0000984 -0.0000278 0.0001481 -0.0000289 0.0001258 -0.0001495 0.0000747 0.0000434 0.0001139 -0.0001552 -0.0002707 0.0001375 0.0001166 -0.0001260 0.0000307 -0.0001044 -0.0000029 -0.0000041 0.0007148 -0.0008935 0.0000704 -0.0001720 0.0003497 -0.0004367 0.0009628 -0.0007433 -0.0052828 0.0103966 -0.0010239 0.0004996 0.0000392 -0.0000578 0.0001033 -0.0000203 -0.0000402 0.0000471 -0.0006022 0.0004092 -0.0006012 0.0004241 -0.0001385 0.0001682 -0.0000459 -0.0001770 0.0000295 -0.0001376 0.0002408 -0.0003098 -0.0000673 0.0000153 -0.0001266 -0.0000052 0.0000371 -0.0002697 -0.0000489 -0.0000860 0.0001553 -0.0001030 -0.0000315 -0.0000267
-0.0000796 0.0001141 -0.0000687 -0.0000064 0.0000306 -0.0001086 0.0000263 -0.0001113 0.0000813 -0.0001463 0.0000211 -0.0002373 0.0001309 -0.0000442 0.0001508 -0.0002561 0.0002519 -0.0001541 0.0001231 -0.0002083 0.0000111 -0.0001449 0.0000066 -0.0000705 -0.0001764 0.0001614 -0.0000081 -0.0000298 0.0000154 -0.0000727 0.0000152 -0.0001020 0.0000119 -0.0001311 0.0000341 -0.0001471 0.0000481 -0.0000802 -0.0000144 -0.0000498 0.0000729 -0.0000850 -0.0001235 0.0000521 0.0000616 -0.0001863 0.0000502 -0.0001842 0.0001974 -0.0004254 0.0001229 -0.0006075 0.0000862 -0.0002262 0.0000082 -0.0000330 0.0000573 -0.0003622 0.0000257 -0.0002258 0.0000440 -0.0004466 0.0001164 -0.0006686 0.0000436 -0.0004823 0.0000807 -0.0002799 0.0007446 -0.0007254 -0.0008604 0.0007549 -0.0011479 0.0010556 0.0000969 -0.0007832 -0.0001846 -0.0000269 0.0000453 -0.0004859 -0.0000541 -0.0002451 0.0004910 -0.0008296 -0.0000718 -0.0001600 0.0000714 -0.0003987 -0.0001994 -0.0003773 0.0000029 -0.0002776 0.0000375 -0.0001118 0.0000440 -0.0001904 0.0000618 -0.0001757 0.0000269 -0.0002196 -0.0006378 0.0006938 -0.0000298 -0.0000244 -0.0000203 -0.0002517 -0.0000013 -0.0003285 0.0000514 -0.0002184 0.0002964 -0.0004176 0.0000403 -0.0002112 0.0000481 -0.0000733 -0.0000286 -0.0001030 -0.0000096 -0.0000978 0.0001675 -0.0003605 -0.0000278 -0.0002105 0.0000980 -0.0001365 0.0001459 -0.0000950 0.0000869 -0.0001438 0.0000551 -0.0001007 0.0001340 -0.0002713 -0.0002025 -0.0001092 0.0001088 -0.0002168 0.0001377 -0.0003259 0.0000321 -0.0001904 0.0013058 -0.0006583 0.0000814 -0.0001980 0.0002349 -0.0003827 0.0004791 -0.0008063 -0.0037842 0.0082713 -0.0013658 0.0005416 0.0000476 -0.0002394 0.0000556 -0.0000932 -0.0000340 -0.0000369 -0.0007935 0.0003231 -0.0009472 0.0002096 -0.0001660 0.0001044 -0.0004512 0.0001890 0.0000045 -0.0001755 0.0003570 -0.0006483 -0.0000253 -0.0002196 -0.0000357 -0.0003065 0.0000375 -0.0002908 -0.0000645 -0.0001443 0.0001994 -0.0004364 -0.0000448 -0.0001917
-0.0001144 0.0000979 -0.0001475 0.0000032 0.0000374 -0.0001872 0.0000315 -0.0001727 0.0001054 -0.0002952 0.0000493 -0.0003642 0.0001622 -0.0001066 -0.0000614 -0.0002917 0.0002313 -0.0002037 0.0001586 -0.0003823 0.0002351 -0.0005012 -0.0001054 -0.0002043 -0.0002038 0.0000114 -0.0000268 -0.0001557 -0.0000026 -0.0003683 0.0000348 -0.0003017 0.0000048 -0.0004115 0.0000230 -0.0004696 0.0000583 -0.0002077 0.0000863 -0.0002625 0.0000225 -0.0002523 0.0002106 -0.0004693 0.0000500 -0.0004490 0.0000559 -0.0003821 0.0002086 -0.0006196 0.0001036 -0.0011094 0.0001954 -0.0005220 -0.0000878 -0.0000188 0.0000067 -0.0008451 0.0000329 -0.0006565 0.0000589 -0.0006262 0.0000857 -0.0010669 0.0000592 -0.0006745 -0.0000152 -0.0004200 0.0004661 -0.0008043 -0.0011575 0.0007563 0.0013790 -0.0021732 0.0000474 -0.0009494 0.0002416 -0.0009254 0.0000389 -0.0006447 0.0000473 -0.0005191 0.0002094 -0.0007257 0.0005450 -0.0010713 0.0000605 -0.0004486 0.0002000 -0.0005537 0.0000433 -0.0004274 0.0000495 -0.0002111 0.0000507 -0.0002658 -0.0000041 -0.0002295 -0.0000170 -0.0004376 -0.0006227 0.0004839 -0.0000712 -0.0001638 0.0000169 -0.0004632 0.0002386 -0.0005564 -0.0000000 -0.0004259 0.0000734 -0.0004602 0.0000369 -0.0003434 0.0000215 -0.0001998 0.0000424 -0.0003326 0.0000430 -0.0002918 0.0000852 -0.0005316 0.0000327 -0.0004306 0.0000895 -0.0003293 0.0001407 -0.0002663 0.0000832 -0.0003067 0.0000381 -0.0004508 0.0001283 -0.0005258 -0.0001465 -0.0003510 0.0001231 -0.0004849 0.0000259 -0.0005338 0.0000437 -0.0004251 -0.0002519 -0.0001992 0.0001076 -0.0004557 0.0000167 -0.0003825 -0.0002366 -0.0006170 -0.0056021 0.0050532 -0.0015467 0.0010690 0.0000417 -0.0004136 -0.0000857 -0.0002410 0.0000597 -0.0005649 0.0002414 -0.0006903 -0.0002596 -0.0003159 0.0003986 -0.0007774 -0.0002239 -0.0003006 0.0000566 -0.0003470 0.0002366 -0.0008780 0.0000492 -0.0003452 0.0000708 -0.0003789 0.0000826 -0.0004483 0.0000331 -0.0003681 0.0001152 -0.0003202 0.0000139 -0.0002241
-0.0001176 0.0000950 -0.0001584 0.0000206 0.0000255 -0.0002055 0.0000408 -0.0001934 0.0000946 -0.0002958 0.0000824 -0.0003858 0.0001660 -0.0001172 -0.0001199 -0.0000762 0.0003154 -0.0002650 0.0001674 -0.0003537 0.0002559 -0.0004858 0.0000592 -0.0002873 -0.0001292 -0.0001342 0.0000258 -0.0002138 -0.0000127 -0.0002092 0.0000329 -0.0002572 0.0000294 -0.0004264 0.0000251 -0.0002806 0.0000544 -0.0001615 0.0001225 -0.0002848 -0.0000665 -0.0002225 0.0003671 -0.0004957 0.0000564 -0.0002722 0.0000829 -0.0003713 0.0002354 -0.0005851 0.0001462 -0.0008461 0.0001431 -0.0003518 -0.0000361 -0.0000117 0.0001417 -0.0005703 -0.0000221 -0.0003515 0.0000675 -0.0005220 0.0001022 -0.0008007 0.0000777 -0.0006094 -0.0000012 -0.0003609 -0.0002456 -0.0002873 -0.0009454 0.0002847 -0.0037593 0.0021509 0.0001106 -0.0007883 0.0003169 -0.0006528 0.0001024 -0.0006173 0.0001896 -0.0005956 -0.0002876 -0.0001313 0.0005898 -0.0012586 0.0000055 -0.0002916 0.0001835 -0.0002397 0.0002130 -0.0004440 0.0000573 -0.0002581 0.0000077 -0.0002986 0.0000271 -0.0002834 -0.0000601 -0.0003704 -0.0006984 0.0004150 0.0002572 -0.0006272 0.0000317 -0.0003999 0.0002505 -0.0004163 0.0000143 -0.0003204 -0.0000585 -0.0003648 0.0000199 -0.0002874 -0.0000168 -0.0001632 0.0000876 -0.0004083 0.0000296 -0.0002870 -0.0000076 -0.0003663 0.0000232 -0.0003537 0.0000987 -0.0002557 0.0001649 -0.0001925 0.0001193 -0.0002819 0.0000263 -0.0004380 0.0001289 -0.0004247 0.0004955 -0.0008190 0.0001922 -0.0004719 -0.0001532 -0.0003899 0.0000745 -0.0003676 -0.0006622 0.0000093 0.0000427 -0.0003400 -0.0002473 -0.0001554 0.0003662 -0.0010199 0.0053892 -0.0082800 -0.0030317 0.0014276 0.0000094 -0.0002169 -0.0003170 0.0000284 0.0000772 -0.0005026 0.0000464 -0.0000675 -0.0000289 -0.0002772 0.0002811 -0.0008000 -0.0000422 -0.0003918 0.0000247 -0.0002589 -0.0002939 -0.0002075 0.0000657 -0.0001956 0.0000055 -0.0001845 0.0001331 -0.0004272 0.0000353 -0.0002817 0.0004051 -0.0004741 0.0000225 -0.0001275
-0.0000861 0.0001383 -0.0001016 0.0000321 0.0000318 -0.0001320 0.0000448 -0.0001271 0.0001065 -0.0001884 0.0000583 -0.0002148 0.0001877 -0.0000787 0.0000826 -0.0000176 0.0002866 -0.0000980 0.0001982 -0.0002299 0.0000710 -0.0002117 0.0001393 -0.0001794 0.0001596 -0.0004327 0.0000360 -0.0001204 0.0000074 0.0000679 0.0000386 -0.0001135 0.0000380 -0.0001821 0.0000434 0.0000256 0.0000559 -0.0000522 0.0000172 -0.0000716 -0.0001753 0.0000069 0.0003622 -0.0002334 0.0000934 -0.0000328 0.0001451 -0.0002557 0.0002644 -0.0004497 0.0001581 -0.0003959 0.0001718 -0.0001873 0.0000711 0.0000831 0.0001621 -0.0000515 0.0001236 -0.0001105 0.0000794 -0.0003586 0.0001617 -0.0004135 0.0001026 -0.0004543 -0.0000222 -0.0001491 0.0004122 -0.0008492 -0.0003351 -0.0003064 -0.0045619 0.0054369 0.0001503 -0.0004160 0.0002294 0.0000054 0.0000724 -0.0004251 0.0001944 -0.0004149 0.0001888 -0.0000714 -0.0000648 -0.0003853 0.0000724 -0.0001995 0.0001095 -0.0001583 0.0003260 -0.0005102 0.0000613 -0.0001891 -0.0000308 -0.0001959 0.0000639 -0.0002556 -0.0000125 -0.0001789 -0.0006157 0.0007294 0.0001041 -0.0004799 0.0000532 -0.0003617 0.0002579 -0.0004718 0.0000473 -0.0001508 -0.0001044 -0.0000990 -0.0000290 -0.0001847 -0.0000204 -0.0000551 0.0001030 -0.0002956 0.0000075 -0.0001309 -0.0000035 -0.0001593 -0.0000466 -0.0001018 0.0001082 -0.0000728 0.0001936 -0.0000011 0.0001244 -0.0001266 -0.0000172 -0.0002343 0.0000423 -0.0000636 0.0002676 -0.0004143 0.0002817 -0.0002883 -0.0001080 -0.0000218 0.0001013 -0.0001519 0.0005087 -0.0008565 0.0001548 -0.0001823 -0.0000740 -0.0000853 0.0005640 -0.0007146 0.0024536 -0.0026877 -0.0020419 0.0009636 0.0000289 -0.0000098 -0.0001490 0.0000966 0.0000494 -0.0001163 -0.0002749 -0.0002075 -0.0007129 0.0001179 -0.0004030 -0.0000985 0.0001094 -0.0000737 0.0000624 -0.0001134 -0.0003998 0.0002621 0.0000314 0.0000791 -0.0001779 0.0000603 0.0001498 -0.0002244 0.0000600 0.0000045 0.0006271 -0.0005167 0.0000106 0.0000533
-0.0000523 0.0001774 -0.0000651 0.0000829 0.0000340 -0.0000531 0.0000570 -0.0000699 0.0000857 -0.0000667 0.0000409 -0.0000444 0.0002244 -0.0000579 0.0002296 -0.0002176 0.0002898 0.0000182 0.0001873 -0.0001526 -0.0000141 -0.0000629 0.0000355 -0.0001336 0.0003087 -0.0004259 -0.0000093 -0.0000430 0.0000117 -0.0000070 0.0000442 -0.0000781 -0.0000261 -0.0000127 0.0000521 -0.0001605 0.0000655 -0.0000910 -0.0000561 -0.0000023 -0.0000271 -0.0001021 -0.0002397 0.0001732 0.0000697 -0.0001971 0.0001638 -0.0003056 0.0002888 -0.0005164 0.0001412 -0.0007220 0.0001970 -0.0003390 0.0001273 -0.0001472 0.0001191 -0.0004166 0.0001521 -0.0003505 0.0000948 -0.0004971 0.0001370 -0.0007222 0.0000881 -0.0005169 -0.0000791 -0.0001843 0.0003078 -0.0005155 0.0000865 -0.0005210 0.0035293 -0.0021581 0.0000662 -0.0007011 0.0003610 -0.0005952 -0.0000115 -0.0004937 0.0001011 -0.0004255 0.0006715 -0.0009069 0.0001067 -0.0003973 -0.0000223 -0.0003320 0.0001463 -0.0004571 0.0000774 -0.0004204 0.0000694 -0.0001034 0.0000694 -0.0001373 0.0000576 -0.0001459 -0.0000883 0.0000374 -0.0001019 0.0002062 -0.0001393 -0.0001404 0.0000383 -0.0003013 0.0002430 -0.0006420 0.0000169 -0.0001973 -0.0001211 0.0000076 -0.0000226 -0.0001547 0.0000147 -0.0001062 0.0000212 -0.0001925 0.0000104 -0.0001341 0.0000417 -0.0003157 -0.0000286 -0.0001712 0.0001094 -0.0001588 0.0001940 -0.0000452 0.0001088 -0.0001869 -0.0000459 -0.0003823 0.0000277 -0.0001469 0.0000138 -0.0003594 0.0002551 -0.0003618 0.0001269 -0.0001583 0.0001271 -0.0002593 0.0006356 -0.0011392 0.0002297 -0.0003937 -0.0001754 0.0000694 -0.0001737 -0.0005073 -0.0056027 0.0088247 -0.0026364 0.0020615 0.0000460 -0.0001889 0.0001933 -0.0003305 0.0000000 -0.0002542 -0.0014419 0.0006476 -0.0008948 0.0001841 -0.0000795 -0.0003449 0.0003415 -0.0003898 0.0001654 -0.0002415 0.0000048 -0.0002453 0.0000656 -0.0002042 -0.0000899 -0.0002213 -0.0000076 -0.0002157 0.0000594 -0.0000101 0.0001851 -0.0003297 -0.0000255 -0.0001694
-0.0000961 0.0001441 -0.0001227 0.0000346 0.0000332 -0.0001599 0.0000617 -0.0001786 0.0000883 -0.0002252 0.0000495 -0.0001709 0.0002102 -0.0001439 0.0000215 -0.0003340 0.0003132 -0.0001313 0.0001404 -0.0002846 -0.0000307 -0.0002467 0.0000395 -0.0004151 -0.0000815 -0.0002795 0.0000049 -0.0002074 -0.0000148 -0.0003734 0.0000120 -0.0002652 -0.0000434 -0.0003454 0.0000367 -0.0005441 0.0000678 -0.0002186 -0.0000100 -0.0001964 0.0000585 -0.0003312 -0.0003417 -0.0000289 0.0000466 -0.0005382 0.0001640 -0.0005077 0.0003149 -0.0007403 0.0001478 -0.0013459 0.0001633 -0.0006480 0.0001613 -0.0003868 0.0001382 -0.0011492 -0.0000497 -0.0006035 0.0001005 -0.0007398 0.0001059 -0.0013150 0.0000648 -0.0007483 -0.0000553 -0.0004313 0.0001938 -0.0004779 0.0001736 -0.0011587 0.0044417 -0.0059541 0.0000643 -0.0013249 0.0004189 -0.0012715 0.0000181 -0.0007548 0.0001347 -0.0006928 0.0002991 -0.0012323 -0.0000468 -0.0005661 -0.0000836 -0.0005370 0.0001151 -0.0008205 -0.0000670 -0.0003957 0.0000607 -0.0002236 -0.0000180 -0.0002270 0.0000454 -0.0003031 -0.0000771 -0.0002511 0.0004464 -0.0008811 0.0001133 -0.0004184 0.0000122 -0.0004787 -0.0000487 -0.0004951 0.0000234 -0.0005156 0.0000421 -0.0003108 0.0000032 -0.0002411 0.0000166 -0.0002611 0.0000849 -0.0003519 -0.0000346 -0.0002295 -0.0000778 -0.0004805 0.0000241 -0.0004930 0.0001127 -0.0004066 0.0002027 -0.0002788 0.0001221 -0.0004093 -0.0000267 -0.0007568 0.0000657 -0.0004655 0.0006071 -0.0008416 0.0001248 -0.0005720 0.0000386 -0.0004350 0.0001101 -0.0005166 0.0003272 -0.0012793 0.0001026 -0.0006196 -0.0001492 -0.0001501 -0.0000641 -0.0010199 0.0011376 0.0020423 -0.0017125 0.0014972 0.0000749 -0.0005545 0.0000471 -0.0004936 0.0000555 -0.0006727 -0.0009824 0.0001241 -0.0003312 -0.0003748 -0.0001419 -0.0003769 0.0002481 -0.0007455 0.0001525 -0.0004079 0.0000643 -0.0007449 0.0000362 -0.0006083 -0.0000323 -0.0005021 -0.0000281 -0.0005274 0.0001041 -0.0003620 -0.0000045 -0.0004053 -0.0000093 -0.0005197
-0.0001727 0.0001483 -0.0001846 -0.0000422 0.0000445 -0.0002993 0.0000754 -0.0003018 0.0001239 -0.0004319 0.0000493 -0.0003448 0.0001657 -0.0001615 0.0000282 -0.0003212 0.0002923 -0.0002979 0.0001344 -0.0004077 -0.0000895 -0.0002796 0.0000897 -0.0005202 -0.0004886 -0.0000266 0.0000069 -0.0003111 -0.0000166 -0.0004398 0.0000222 -0.0004248 -0.0000230 -0.0006046 0.0000335 -0.0004741 0.0000679 -0.0002163 0.0000648 -0.0003692 0.0000106 -0.0003642 0.0000658 -0.0002883 0.0000743 -0.0004568 0.0001565 -0.0005340 0.0003639 -0.0007911 0.0001677 -0.0012033 0.0001443 -0.0006152 0.0002636 -0.0003520 0.0001569 -0.0009803 -0.0000889 -0.0004860 0.0001069 -0.0006842 0.0001388 -0.0011786 0.0000846 -0.0007656 -0.0000655 -0.0004299 -0.0003937 0.0003181 0.0001539 -0.0010155 0.0012597 -0.0032284 0.0001118 -0.0011752 0.0001410 -0.0008549 0.0001060 -0.0008280 0.0000701 -0.0006932 -0.0002890 -0.0006099 -0.0008211 -0.0003131 -0.0000666 -0.0004598 -0.0000189 -0.0007564 0.0001170 -0.0006406 0.0000656 -0.0004037 -0.0000585 -0.0003862 0.0000513 -0.0005795 -0.0000202 -0.0006806 0.0005964 -0.0012929 0.0000432 -0.0006060 0.0000981 -0.0007187 -0.0001549 -0.0004761 0.0001437 -0.0007354 0.0001494 -0.0005683 -0.0000702 -0.0003202 0.0000269 -0.0003065 0.0001736 -0.0005762 -0.0000105 -0.0002974 0.0000763 -0.0006117 0.0000297 -0.0005239 0.0001204 -0.0004083 0.0002307 -0.0002744 0.0001415 -0.0003951 -0.0000189 -0.0008077 0.0001310 -0.0004598 0.0005160 -0.0006181 0.0000232 -0.0004462 0.0000136 -0.0004846 0.0001192 -0.0005044 0.0007003 -0.0020885 0.0000940 -0.0005975 0.0001591 -0.0004517 -0.0003334 -0.0003785 0.0006596 -0.0007924 0.0002620 -0.0010986 0.0000677 -0.0004813 0.0000124 -0.0003171 0.0002426 -0.0007466 -0.0000667 -0.0011429 -0.0001887 -0.0004864 -0.0002568 -0.0002318 -0.0000230 -0.0004933 0.0001612 -0.0004224 -0.0002170 -0.0006117 0.0000085 -0.0003973 0.0000659 -0.0005089 0.0000853 -0.0005817 0.0000785 -0.0003563 0.0004202 -0.0002875 -0.0000257 -0.0003421
-0.0001623 0.0001967 -0.0001506 -0.0000223 0.0000467 -0.0002482 0.0000852 -0.0002355 0.0001019 -0.0003154 0.0000490 -0.0002216 0.0001847 -0.0000714 0.0001728 -0.0002525 0.0002892 -0.0002346 0.0001686 -0.0003687 0.0001158 -0.0003136 0.0001976 -0.0004245 -0.0002651 -0.0002499 -0.0000039 -0.0002279 0.0000059 -0.0001822 0.0000447 -0.0003010 -0.0000057 -0.0004107 0.0000530 -0.0001997 0.0000774 -0.0001360 -0.0000480 -0.0002198 0.0000495 -0.0003444 0.0000406 -0.0002669 0.0000899 -0.0001953 0.0001541 -0.0004275 0.0003983 -0.0006695 0.0002168 -0.0008295 0.0001048 -0.0003478 0.0002197 -0.0003966 0.0001872 -0.0005378 0.0001471 -0.0004119 0.0001204 -0.0005346 0.0001642 -0.0008089 0.0001044 -0.0006161 -0.0000080 -0.0003989 -0.0017411 0.0012212 -0.0001616 0.0001265 0.0014545 0.0000615 0.0001111 -0.0007840 0.0000434 -0.0005709 0.0001285 -0.0007380 0.0000613 -0.0005344 -0.0003910 -0.0000743 -0.0008027 -0.0003906 0.0001269 -0.0004687 -0.0002447 -0.0003267 0.0001390 -0.0005982 0.0000657 -0.0003467 0.0000490 -0.0004338 0.0000303 -0.0004947 0.0000996 -0.0006580 0.0010183 -0.0015470 -0.0000175 -0.0005112 0.0000914 -0.0005636 0.0002431 -0.0007688 0.0000973 -0.0005219 0.0002184 -0.0005439 -0.0001074 -0.0002606 -0.0000150 -0.0001750 0.0000378 -0.0003311 0.0000228 -0.0002387 0.0000921 -0.0004877 -0.0000144 -0.0003454 0.0001235 -0.0002638 0.0002381 -0.0000993 0.0001284 -0.0002432 -0.0000313 -0.0006350 0.0001147 -0.0002090 0.0002579 -0.0006431 0.0000342 -0.0002712 -0.0000700 -0.0003328 0.0002357 -0.0004495 0.0013632 -0.0018215 0.0002421 -0.0004642 0.0003641 -0.0005690 -0.0005714 0.0000345 0.0012276 -0.0013305 -0.0014840 0.0004341 0.0000558 -0.0002980 0.0000175 -0.0001909 0.0002139 -0.0004664 -0.0012915 0.0003162 -0.0001496 -0.0003382 0.0000638 -0.0004914 -0.0002482 -0.0000435 0.0001257 -0.0002140 -0.0002543 -0.0003832 0.0000742 -0.0001941 0.0001001 -0.0003961 0.0000643 -0.0003313 -0.0000106 -0.0001226 0.0001085 0.0002879 -0.0000265 -0.0000744
-0.0001063 0.0002447 -0.0001109 0.0000642 0.0000400 -0.0001032 0.0000773 -0.0001040 0.0001002 -0.0001410 0.0000539 0.0000181 0.0001887 0.0000713 0.0003021 -0.0001851 0.0002652 -0.0000375 0.0002327 -0.0002455 0.0003824 -0.0004995 0.0002945 -0.0002994 0.0000246 -0.0004683 0.0000325 -0.0000986 0.0000277 0.0001569 0.0000668 -0.0001015 0.0000083 -0.0000484 0.0000825 0.0000910 0.0000905 -0.0000098 -0.0000964 -0.0000803 0.0000873 -0.0002133 0.0001246 -0.0003437 0.0001059 -0.0001084 0.0001377 -0.0002823 0.0004088 -0.0005655 0.0002509 -0.0007715 0.0001023 -0.0002874 0.0001103 -0.0002676 0.0001522 -0.0005306 0.0002812 -0.0005105 0.0001400 -0.0005773 0.0001613 -0.0009283 0.0001074 -0.0005902 -0.0000523 -0.0003034 -0.0005994 0.0001263 0.0001838 -0.0004845 0.0003115 0.0012590 0.0001283 -0.0009578 -0.0000434 -0.0006335 0.0001480 -0.0007442 0.0000894 -0.0004513 -0.0001398 -0.0004506 0.0001487 -0.0006035 0.0002298 -0.0005780 -0.0001834 -0.0004060 0.0000142 -0.0003267 0.0000701 -0.0001898 -0.0000038 -0.0001965 0.0000113 -0.0002465 0.0001418 -0.0004002 0.0003653 -0.0001389 0.0002169 -0.0003007 -0.0000041 -0.0002597 0.0006487 -0.0007561 0.0000259 -0.0001774 0.0001294 -0.0002848 0.0000610 -0.0002382 -0.0000140 0.0000080 -0.0000232 -0.0000417 0.0000389 -0.0000767 -0.0001745 0.0000390 -0.0000277 -0.0001466 0.0001304 -0.0000924 0.0002364 0.0001069 0.0001404 -0.0001009 -0.0000189 -0.0003216 0.0000422 0.0000005 0.0002384 -0.0005665 0.0000714 -0.0001918 -0.0000718 -0.0000186 0.0001544 -0.0002661 0.0006441 -0.0007134 0.0002633 -0.0003481 0.0002309 -0.0004391 -0.0003373 -0.0004513 0.0035531 0.0022788 0.0002507 -0.0003874 0.0000641 -0.0004106 -0.0001180 -0.0001236 -0.0000921 -0.0001969 -0.0010227 0.0004652 0.0004545 -0.0007354 0.0000122 -0.0004073 -0.0002365 -0.0001639 0.0000775 -0.0001342 0.0000290 -0.0004188 0.0000383 -0.0003628 -0.0000264 -0.0003888 -0.0000340 -0.0002670 0.0000158 -0.0001011 0.0001787 -0.0000884 0.0000132 -0.0002820
-0.0001310 0.0002800 -0.0001539 0.0000851 0.0000301 -0.0001184 0.0000804 -0.0001534 0.0001261 -0.0002302 0.0000349 0.0000134 0.0001949 0.0000312 0.0005256 -0.0005599 0.0002715 0.0000032 0.0002353 -0.0002992 0.0001253 -0.0004748 0.0002577 -0.0003855 0.0000554 -0.0004343 0.0000491 -0.0001760 0.0000142 -0.0001303 0.0000791 -0.0002468 0.0000177 -0.0002823 0.0000948 -0.0001799 0.0001139 -0.0000202 -0.0000037 -0.0002439 -0.0000166 -0.0002182 0.0001411 -0.0004803 0.0000926 -0.0003958 0.0001631 -0.0004139 0.0004292 -0.0006742 0.0002611 -0.0011873 0.0000604 -0.0003976 0.0000615 -0.0002720 0.0000585 -0.0009007 0.0001343 -0.0006884 0.0001738 -0.0006845 0.0002028 -0.0012970 0.0001308 -0.0007508 -0.0000648 -0.0004493 0.0012778 -0.0016284 0.0010922 -0.0013377 -0.0012114 0.0005628 0.0001480 -0.0014651 -0.0000701 -0.0008076 0.0002602 -0.0007471 0.0001434 -0.0007208 0.0003030 -0.0012241 0.0001238 -0.0009702 0.0000430 -0.0005936 -0.0002116 -0.0004495 -0.0000046 -0.0004308 0.0000789 -0.0002337 -0.0000296 -0.0002553 0.0000443 -0.0003131 0.0001089 -0.0003849 0.0003124 -0.0001392 -0.0000735 -0.0006341 -0.0000146 -0.0004029 0.0002100 -0.0006169 -0.0000087 -0.0003558 -0.0000647 -0.0002212 0.0000006 -0.0001929 0.0000014 -0.0000843 0.0000121 -0.0002090 0.0000379 -0.0001852 -0.0001934 -0.0001494 -0.0000232 -0.0003109 0.0001432 -0.0002833 0.0002453 -0.0000324 0.0001823 -0.0002598 -0.0000186 -0.0004997 0.0000636 -0.0002502 0.0004325 -0.0007481 0.0001211 -0.0004548 0.0001634 -0.0003480 0.0001368 -0.0003884 -0.0010435 0.0006837 0.0002291 -0.0006057 -0.0000747 -0.0003262 0.0002709 -0.0013280 -0.0030395 0.0063213 0.0015296 -0.0029976 0.0000833 -0.0006394 -0.0001417 -0.0002673 -0.0000605 -0.0004692 0.0001497 -0.0002339 -0.0000992 -0.0002666 -0.0003530 -0.0001699 -0.0003700 -0.0003363 0.0001005 -0.0002696 0.0001512 -0.0009073 0.0000108 -0.0005917 0.0000663 -0.0006854 -0.0000004 -0.0005266 0.0000385 -0.0002684 0.0003606 -0.0010225 0.0000249 -0.0006433
-0.0001818 0.0002565 -0.0002248 0.0000478 0.0000419 -0.0002830 0.0000777 -0.0003063 0.0001089 -0.0004003 0.0000179 -0.0001556 0.0002616 -0.0001547 0.0004447 -0.0007993 0.0002319 -0.0000871 0.0002421 -0.0005208 -0.0002176 -0.0003263 0.0001763 -0.0005426 0.0001080 -0.0004698 0.0000334 -0.0003809 -0.0000047 -0.0005997 0.0000842 -0.0005452 0.0000023 -0.0007620 0.0000765 -0.0005652 0.0001211 -0.0001473 0.0000402 -0.0004492 0.0000550 -0.0004191 0.0000443 -0.0005266 0.0000929 -0.0005738 0.0001603 -0.0005876 0.0004659 -0.0008133 0.0002726 -0.0014013 0.0001266 -0.0005333 -0.0000427 -0.0002901 0.0000324 -0.0009599 0.0001092 -0.0008904 0.0001971 -0.0006792 0.0002155 -0.0012739 0.0001526 -0.0008004 -0.0000617 -0.0005146 0.0004548 -0.0010918 0.0012420 -0.0007593 -0.0009720 0.0004516 0.0001324 -0.0014814 0.0002119 -0.0009538 0.0002505 -0.0007402 0.0002297 -0.0008900 0.0001955 -0.0010579 -0.0009082 -0.0007628 0.0001086 -0.0007140 0.0000125 -0.0005898 0.0000541 -0.0006108 0.0000984 -0.0003868 0.0000025 -0.0004726 0.0000766 -0.0004990 0.0000472 -0.0005664 0.0003938 -0.0011048 -0.0001574 -0.0009504 0.0000380 -0.0007679 -0.0000045 -0.0007270 0.0000084 -0.0006526 0.0000015 -0.0004400 -0.0001028 -0.0002868 -0.0000208 -0.0002668 0.0000357 -0.0004652 0.0000844 -0.0004493 -0.0000988 -0.0006054 -0.0000537 -0.0005524 0.0001394 -0.0005266 0.0002346 -0.0002405 0.0001823 -0.0004527 -0.0000094 -0.0008476 0.0000452 -0.0004876 0.0004879 -0.0011319 0.0002151 -0.0007642 0.0001325 -0.0006826 0.0002118 -0.0005976 -0.0026336 0.0012308 0.0003134 -0.0008025 -0.0000184 -0.0006217 0.0004233 -0.0016410 -0.0040945 0.0023066 0.0008200 -0.0020271 0.0001191 -0.0006675 -0.0000367 -0.0005713 0.0001427 -0.0006966 0.0012261 -0.0009662 0.0002732 -0.0010472 -0.0005144 -0.0000903 -0.0000559 -0.0006521 0.0001564 -0.0004309 -0.0002390 -0.0006328 0.0000692 -0.0005607 -0.0000122 -0.0005954 0.0001237 -0.0006517 0.0000679 -0.0003233 -0.0003073 -0.0004845 -0.0000063 -0.0005072
-0.0001657 0.0002499 -0.0002024 0.0000563 0.0000894 -0.0003030 0.0000774 -0.0002674 0.0001010 -0.0003760 0.0000253 -0.0001396 0.0002822 -0.0001212 0.0003244 -0.0005007 0.0002934 -0.0002049 0.0002953 -0.0005031 -0.0001776 -0.0001958 0.0000718 -0.0003618 0.0001373 -0.0004434 0.0000191 -0.0003183 0.0000258 -0.0004073 0.0001170 -0.0004865 0.0000063 -0.0006546 0.0000768 -0.0003425 0.0001038 -0.0001317 0.0000861 -0.0004206 0.0001514 -0.0004979 0.0000000 -0.0003498 0.0001080 -0.0003149 0.0001638 -0.0005206 0.0005059 -0.0007601 0.0002885 -0.0010944 0.0001787 -0.0004402 0.0000827 -0.0001596 0.0000656 -0.0006158 0.0001309 -0.0006678 0.0002030 -0.0006265 0.0002033 -0.0010432 0.0001817 -0.0007432 -0.0000109 -0.0003640 -0.0004486 -0.0005459 0.0008227 -0.0005057 0.0007509 -0.0000883 0.0001543 -0.0011685 0.0004222 -0.0010635 0.0001753 -0.0008447 0.0000747 -0.0006028 0.0000286 -0.0007206 -0.0004374 -0.0003633 0.0001431 -0.0006022 0.0002185 -0.0006915 0.0000221 -0.0005267 0.0000985 -0.0003648 0.0000145 -0.0004118 0.0001426 -0.0005333 0.0000100 -0.0003844 -0.0005318 -0.0001010 0.0002036 -0.0006612 0.0000985 -0.0007357 0.0003240 -0.0006236 0.0000257 -0.0004982 0.0000094 -0.0004023 -0.0000661 -0.0003104 0.0000015 -0.0001992 0.0000063 -0.0003748 0.0000782 -0.0004081 -0.0000164 -0.0004858 -0.0000215 -0.0004720 0.0001614 -0.0003951 0.0002393 -0.0001098 0.0001698 -0.0003246 0.0000284 -0.0006058 0.0000149 -0.0003040 0.0002201 -0.0009995 0.0001535 -0.0005129 0.0001001 -0.0004434 0.0001945 -0.0005141 -0.0012774 -0.0000900 0.0004766 -0.0007957 -0.0001878 -0.0003272 0.0002767 -0.0011294 0.0002037 0.0014988 0.0006113 -0.0003027 0.0000702 -0.0004788 0.0001145 -0.0006715 0.0001171 -0.0005218 0.0019409 -0.0018950 0.0008378 -0.0014921 -0.0003422 -0.0000955 0.0005502 -0.0010006 0.0002260 -0.0004721 -0.0001086 -0.0004387 0.0001354 -0.0004009 0.0000064 -0.0004302 0.0000952 -0.0004886 0.0000852 -0.0001947 -0.0000487 -0.0002892 -0.0000055 -0.0002463
-0.0001293 0.0002857 -0.0001276 0.0000847 0.0000866 -0.0001705 0.0000918 -0.0001536 0.0001404 -0.0002761 0.0000576 -0.0000047 0.0003123 0.0000036 0.0002610 -0.0000933 0.0003608 -0.0001731 0.0002818 -0.0003235 -0.0001106 -0.0001485 0.0001668 -0.0002314 -0.0000510 -0.0001541 0.0000007 -0.0001471 0.0000469 -0.0000617 0.0001135 -0.0002615 0.0000588 -0.0003812 0.0000919 -0.0000160 0.0001074 -0.0000122 0.0001094 -0.0003009 0.0001026 -0.0003831 0.0000351 -0.0002057 0.0001185 -0.0000295 0.0001940 -0.0003639 0.0005297 -0.0005856 0.0003145 -0.0006011 0.0002049 -0.0003245 0.0001681 -0.0000106 0.0000582 -0.0000844 0.0001334 -0.0002431 0.0002254 -0.0004739 0.0002450 -0.0006455 0.0001939 -0.0005977 0.0000269 -0.0002027 -0.0004330 -0.0000021 0.0002082 0.0002619 0.0026678 -0.0035670 0.0001487 -0.0007505 0.0002968 -0.0006650 0.0001543 -0.0006820 -0.0000713 -0.0003128 -0.0001529 -0.0002626 -0.0005741 0.0001540 0.0000387 -0.0003137 -0.0001944 -0.0002084 -0.0000299 -0.0002672 0.0000887 -0.0002651 0.0000465 -0.0003211 0.0001389 -0.0004742 -0.0000768 -0.0001880 -0.0000793 0.0002078 -0.0001017 -0.0000010 0.0001100 -0.0005562 0.0002214 -0.0005420 0.0000467 -0.0003667 -0.0001405 -0.0002825 -0.0000057 -0.0002097 0.0000114 -0.0000181 -0.0000001 -0.0002586 0.0000148 -0.0001902 -0.0000037 -0.0002634 -0.0000226 -0.0003287 0.0001871 -0.0001875 0.0002736 0.0000786 0.0001616 -0.0001227 0.0000604 -0.0002017 0.0000814 -0.0000798 -0.0002374 -0.0001675 0.0000483 -0.0001586 0.0001820 -0.0003282 0.0001486 -0.0002641 0.0009050 -0.0019523 0.0004460 -0.0006679 -0.0003221 -0.0000352 0.0003277 -0.0006778 -0.0071720 0.0055692 -0.0000360 0.0005609 0.0000933 -0.0002803 0.0000239 -0.0003313 0.0002232 -0.0003311 0.0002605 -0.0002965 -0.0003517 0.0000692 0.0001996 -0.0004340 0.0002356 -0.0001792 0.0001862 -0.0002803 0.0004490 -0.0008217 0.0001237 -0.0000778 0.0001112 -0.0002233 0.0000610 -0.0001917 0.0000342 0.0000125 0.0001446 -0.0005029 -0.0000113 -0.0000960
-0.0001045 0.0003432 -0.0000994 0.0001341 0.0000571 -0.0000673 0.0000913 -0.0001057 0.0001621 -0.0001754 0.0000594 0.0001122 0.0003016 0.0000780 0.0003123 -0.0001918 0.0004090 -0.0001438 0.0002518 -0.0002631 -0.0002184 -0.0000370 0.0003518 -0.0003600 -0.0000588 -0.0001822 0.0000048 -0.0001296 0.0000464 -0.0001560 0.0000881 -0.0002402 0.0000657 -0.0003632 0.0000896 -0.0001957 0.0001224 -0.0000543 0.0002274 -0.0004256 0.0001138 -0.0003417 0.0000484 -0.0002467 0.0001291 -0.0002051 0.0001576 -0.0003297 0.0005114 -0.0006296 0.0003045 -0.0008618 0.0001713 -0.0003926 0.0001054 -0.0000976 0.0000465 -0.0003833 0.0001142 -0.0004922 0.0002336 -0.0005675 0.0002277 -0.0008912 0.0001736 -0.0006620 -0.0000402 -0.0002265 -0.0001536 -0.0001885 -0.0008445 0.0008307 0.0027286 -0.0043888 0.0001546 -0.0010441 0.0001678 -0.0007261 0.0001648 -0.0007847 0.0000372 -0.0004761 0.0000384 -0.0006115 -0.0006075 -0.0003638 0.0001518 -0.0005484 -0.0000761 -0.0003934 -0.0001990 -0.0000322 0.0000860 -0.0001845 -0.0000150 -0.0002174 0.0000163 -0.0002611 0.0000012 -0.0003517 0.0001955 -0.0001390 -0.0003091 0.0000212 0.0001024 -0.0005505 0.0000513 -0.0005063 0.0001046 -0.0004976 -0.0000439 -0.0004168 0.0000513 -0.0001957 0.0000300 -0.0000033 0.0001099 -0.0003097 0.0000563 -0.0001598 0.0000044 -0.0005598 -0.0000101 -0.0003947 0.0001762 -0.0002804 0.0002642 0.0000389 0.0001662 -0.0001762 0.0000803 -0.0002550 0.0001548 -0.0002139 -0.0001667 0.0000674 0.0000369 -0.0002933 0.0001051 -0.0003831 0.0001545 -0.0003458 0.0006120 -0.0012778 0.0003150 -0.0005898 0.0001519 -0.0005822 -0.0000413 -0.0006526 -0.0035423 -0.0006375 -0.0010984 0.0001600 0.0001176 -0.0004145 -0.0000808 -0.0002793 0.0002859 -0.0005330 0.0010189 -0.0007248 -0.0005500 0.0001490 0.0006740 -0.0009125 0.0002233 -0.0001206 0.0000873 -0.0001764 0.0003703 -0.0006648 0.0000805 -0.0003027 0.0000898 -0.0002295 0.0000724 -0.0002939 0.0000101 -0.0000301 0.0003307 -0.0009290 -0.0000557 -0.0002136
-0.0001313 0.0003514 -0.0001746 0.0001424 0.0000746 -0.0001578 0.0001270 -0.0002098 0.0001599 -0.0002919 0.0000357 0.0000390 0.0002571 0.0000553 0.0001940 -0.0004016 0.0004008 -0.0001867 0.0002580 -0.0003698 -0.0000308 -0.0002881 0.0004067 -0.0006098 -0.0003596 -0.0000398 -0.0000072 -0.0002382 0.0000320 -0.0004646 0.0000977 -0.0004115 0.0000129 -0.0005693 0.0000841 -0.0005311 0.0001314 -0.0001733 0.0001626 -0.0005268 0.0001198 -0.0004685 0.0000201 -0.0004143 0.0001204 -0.0004911 0.0001650 -0.0005021 0.0005179 -0.0008190 0.0003100 -0.0014285 0.0000412 -0.0003698 0.0001333 -0.0004710 -0.0000019 -0.0009697 0.0001841 -0.0009085 0.0002264 -0.0007533 0.0002000 -0.0013826 0.0001984 -0.0009029 -0.0000132 -0.0004235 0.0000501 -0.0004936 -0.0006927 0.0001744 -0.0009067 -0.0004037 0.0002134 -0.0015512 -0.0000686 -0.0008712 0.0001541 -0.0009941 0.0001635 -0.0007837 0.0005255 -0.0013134 0.0005946 -0.0012990 0.0001609 -0.0006856 0.0002199 -0.0007013 -0.0001551 -0.0001954 0.0000815 -0.0002525 0.0000063 -0.0003821 0.0000089 -0.0003316 0.0000353 -0.0003249 0.0003609 -0.0011085 -0.0000388 -0.0004294 0.0000515 -0.0006304 -0.0000491 -0.0005729 0.0000536 -0.0007246 -0.0001399 -0.0003488 -0.0000147 -0.0001591 0.0000406 -0.0000993 0.0001190 -0.0004092 0.0000516 -0.0002377 0.0000400 -0.0008580 0.0000408 -0.0005920 0.0001436 -0.0004709 0.0002673 -0.0001549 0.0001562 -0.0003415 0.0000770 -0.0005351 0.0000479 -0.0004179 0.0001463 -0.0005169 0.0000539 -0.0005622 0.0001504 -0.0005149 0.0001384 -0.0005251 0.0007861 -0.0007081 0.0001877 -0.0005826 -0.0000371 -0.0005568 0.0006668 -0.0012703 0.0039553 -0.0073394 -0.0017090 0.0002816 0.0000387 -0.0005679 0.0000705 -0.0006322 0.0001749 -0.0007584 0.0008263 -0.0002465 -0.0002301 -0.0003148 0.0005891 -0.0009973 0.0002922 -0.0006214 0.0000835 -0.0002684 0.0002971 -0.0006208 -0.0000166 -0.0005614 0.0001627 -0.0006314 0.0000339 -0.0005579 0.0000983 -0.0002040 0.0006312 -0.0015264 -0.0000476 -0.0003938
-0.0001618 0.0003248 -0.0002074 0.0000851 0.0000888 -0.0002465 0.0001221 -0.0002620 0.0001340 -0.0003922 0.0000449 -0.0000879 0.0002640 0.0000480 0.0001910 -0.0003710 0.0002300 -0.0000617 0.0002697 -0.0003987 0.0002995 -0.0006452 0.0003488 -0.0005882 -0.0003144 -0.0001606 0.0000047 -0.0003033 0.0000325 -0.0004241 0.0001045 -0.0004768 0.0000027 -0.0006427 0.0000874 -0.0003919 0.0001296 -0.0001467 0.0000044 -0.0004128 0.0001311 -0.0005217 0.0001264 -0.0004044 0.0001293 -0.0003445 0.0001977 -0.0004927 0.0005417 -0.0007870 0.0003426 -0.0012108 0.0000424 -0.0003311 0.0002320 -0.0004516 0.0000183 -0.0007027 0.0002602 -0.0007053 0.0002338 -0.0006826 0.0002418 -0.0011798 0.0002440 -0.0008771 0.0000570 -0.0003562 -0.0000268 0.0003285 0.0001340 -0.0006200 -0.0007953 -0.0007192 0.0002272 -0.0012984 0.0000093 -0.0007366 0.0001794 -0.0009487 0.0001464 -0.0007193 0.0003963 -0.0011274 0.0004034 -0.0012371 -0.0000009 -0.0004180 0.0001961 -0.0006154 -0.0000065 -0.0001775 0.0000847 -0.0003476 0.0001010 -0.0005797 0.0001009 -0.0005079 -0.0002115 -0.0001247 0.0008366 -0.0013901 0.0001624 -0.0006519 -0.0000220 -0.0005864 -0.0002595 -0.0003874 0.0000076 -0.0006735 0.0000852 -0.0005095 -0.0000213 -0.0001843 0.0000440 -0.0000818 0.0001021 -0.0004415 -0.0000076 -0.0001972 0.0000606 -0.0006842 0.0000098 -0.0005421 0.0001455 -0.0004012 0.0002925 -0.0001237 0.0001501 -0.0002751 0.0000747 -0.0004788 0.0000335 -0.0003295 0.0001080 -0.0004756 0.0001358 -0.0005478 0.0000726 -0.0002536 0.0001165 -0.0003984 0.0006216 -0.0009639 0.0001746 -0.0004219 0.0002387 -0.0006725 0.0004579 -0.0006203 0.0052339 -0.0088574 -0.0023629 0.0010931 0.0000819 -0.0005085 0.0002043 -0.0005429 0.0003137 -0.0006875 0.0003123 0.0001617 -0.0002014 -0.0001892 0.0002243 -0.0005227 0.0000571 -0.0003375 0.0000583 -0.0001719 0.0003480 -0.0005734 -0.0000580 -0.0002996 0.0001413 -0.0005813 0.0000401 -0.0004336 0.0000777 -0.0000551 0.0003044 -0.0009870 -0.0000379 -0.0002075
-0.0001260 0.0003445 -0.0001519 0.0000869 0.0000736 -0.0001557 0.0000864 -0.0001873 0.0001250 -0.0002792 0.0000530 0.0000002 0.0002334 0.0001704 0.0004114 -0.0002554 0.0002301 0.0000003 0.0002709 -0.0002706 0.0000457 -0.0003123 0.0002304 -0.0003300 -0.0000743 -0.0005453 0.0000424 -0.0002513 0.0000539 -0.0001761 0.0001298 -0.0003636 0.0000037 -0.0004140 0.0000941 -0.0001116 0.0001330 -0.0000549 0.0000229 -0.0003106 0.0000625 -0.0003794 0.0000053 -0.0001600 0.0001636 -0.0001171 0.0001485 -0.0003083 0.0005842 -0.0006742 0.0003766 -0.0007814 0.0001219 -0.0002771 0.0002455 -0.0002395 0.0000700 -0.0001832 0.0002620 -0.0003912 0.0002698 -0.0005573 0.0002817 -0.0007865 0.0002764 -0.0007474 0.0000713 -0.0001568 -0.0002295 0.0007344 -0.0002536 0.0000617 0.0013503 -0.0009530 0.0002425 -0.0008580 0.0001056 -0.0004964 0.0002277 -0.0007998 0.0001303 -0.0004775 0.0000520 -0.0004582 -0.0001850 -0.0006621 -0.0000327 -0.0002908 -0.0000369 -0.0001738 -0.0000365 -0.0000771 0.0000881 -0.0002803 0.0000658 -0.0004656 0.0000679 -0.0003869 -0.0000832 -0.0001942 0.0002405 -0.0003685 0.0003106 -0.0006393 0.0000254 -0.0004572 -0.0001876 -0.0000755 -0.0000213 -0.0003874 0.0003691 -0.0006852 0.0000901 -0.0002574 0.0000793 -0.0000199 0.0001471 -0.0003140 -0.0000132 -0.0000994 0.0000433 -0.0003290 -0.0000692 -0.0002744 0.0001719 -0.0002551 0.0002930 0.0000525 0.0001603 -0.0001293 0.0000713 -0.0002518 0.0000390 -0.0000502 0.0003628 -0.0002859 0.0002074 -0.0004063 0.0001226 -0.0001923 0.0002262 -0.0002743 -0.0010179 0.0007042 0.0002625 -0.0003602 0.0002497 -0.0005162 0.0004539 -0.0007709 0.0023506 -0.0030099 -0.0029119 0.0011938 0.0000957 -0.0003566 0.0001955 -0.0003086 0.0002156 -0.0003297 0.0011283 -0.0017040 -0.0003020 -0.0001124 0.0004155 -0.0002110 0.0000552 -0.0002276 -0.0000529 0.0001229 0.0002466 -0.0005226 0.0000361 -0.0001079 0.0000303 -0.0001905 0.0001464 -0.0002459 0.0000054 0.0001491 0.0002812 -0.0000747 0.0000164 0.0000280
-0.0000848 0.0004101 -0.0000943 0.0001504 0.0000630 -0.0000123 0.0000732 -0.0000370 0.0001564 -0.0001282 0.0000635 0.0002092 0.0002410 0.0002981 0.0003097 -0.0000032 0.0003257 0.0000959 0.0002927 -0.0000963 -0.0000460 -0.0000752 0.0002611 -0.0001677 -0.0000783 -0.0001818 0.0000484 -0.0000819 0.0000675 0.0000546 0.0001342 -0.0001179 0.0000230 -0.0000936 0.0000916 -0.0000695 0.0001411 -0.0000372 0.0000832 -0.0002675 0.0001070 -0.0002972 0.0001341 -0.0002968 0.0001581 -0.0001953 0.0001332 -0.0002561 0.0006154 -0.0007192 0.0003492 -0.0009759 0.0001132 -0.0002486 0.0002326 -0.0004049 0.0000489 -0.0004560 0.0002230 -0.0004687 0.0002851 -0.0006382 0.0002896 -0.0010276 0.0002536 -0.0007766 0.0000183 -0.0001226 -0.0017080 0.0014698 0.0000388 -0.0000418 0.0014724 -0.0035399 0.0002120 -0.0010452 -0.0002902 -0.0003149 0.0002143 -0.0008147 0.0000838 -0.0004621 0.0002883 -0.0008665 -0.0002417 -0.0002725 -0.0000713 -0.0003308 -0.0000315 -0.0001189 -0.0000136 -0.0001778 0.0001004 -0.0001193 0.0000254 -0.0002372 0.0000661 -0.0001804 -0.0000658 0.0001529 0.0006478 -0.0006969 0.0000637 -0.0002802 0.0001215 -0.0002863 0.0003292 -0.0003679 0.0000224 -0.0000922 0.0001211 -0.0002217 0.0000688 -0.0000756 0.0001024 0.0000695 0.0001472 -0.0001072 0.0000203 0.0000211 -0.0000218 -0.0001864 -0.0000547 -0.0001868 0.0001707 -0.0002405 0.0002909 0.0001101 0.0001496 -0.0000765 0.0000502 -0.0002350 -0.0000577 0.0000494 0.0002841 -0.0003388 0.0001785 -0.0003203 0.0002298 -0.0003972 0.0001866 -0.0002090 -0.0011187 0.0010999 0.0001777 -0.0004114 -0.0000146 -0.0004462 -0.0000187 -0.0009346 -0.0003374 0.0021911 0.0004467 -0.0009902 0.0000784 -0.0004447 0.0002407 -0.0004543 0.0001031 -0.0003653 0.0006952 -0.0014952 -0.0003294 -0.0000957 0.0007267 -0.0005575 0.0000396 -0.0002792 -0.0000591 0.0002351 0.0000453 -0.0005123 0.0000788 -0.0003372 0.0001026 -0.0003100 0.0001177 -0.0003028 0.0000507 0.0001192 -0.0000623 0.0003546 0.0000042 -0.0001308
-0.0001224 0.0004169 -0.0001283 0.0001309 0.0000631 -0.0000810 0.0000850 -0.0000996 0.0001734 -0.0002392 0.0000401 0.0001352 0.0002583 0.0002669 0.0002798 -0.0001746 0.0002451 0.0001082 0.0002825 -0.0001766 0.0000241 -0.0001903 0.0003116 -0.0004169 -0.0000419 -0.0000979 0.0000438 -0.0001539 0.0000537 -0.0002451 0.0000849 -0.0002477 0.0000289 -0.0003599 0.0000763 -0.0003613 0.0001408 -0.0001385 0.0000806 -0.0003816 0.0002070 -0.0005089 0.0004644 -0.0008205 0.0001235 -0.0004196 0.0001951 -0.0004587 0.0006162 -0.0008580 0.0003430 -0.0014152 0.0000062 -0.0004030 0.0000736 -0.0004782 0.0000112 -0.0009592 0.0000403 -0.0005168 0.0002865 -0.0008083 0.0002839 -0.0014827 0.0002340 -0.0009174 -0.0000108 -0.0002250 -0.0010932 -0.0000730 -0.0004265 -0.0008518 -0.0006349 -0.0038231 0.0001824 -0.0014853 -0.0003040 -0.0006871 0.0002421 -0.0010643 0.0001614 -0.0007054 0.0004911 -0.0014278 0.0001705 -0.0009103 -0.0000382 -0.0005034 0.0001735 -0.0004727 -0.0000202 -0.0002175 0.0001018 -0.0001797 0.0000963 -0.0002870 0.0000820 -0.0002719 0.0001316 -0.0000503 0.0010160 -0.0010141 -0.0000599 -0.0003031 0.0001586 -0.0004596 0.0006834 -0.0008970 0.0001330 -0.0004611 -0.0000088 -0.0001388 -0.0000197 -0.0000194 0.0000589 0.0000280 0.0000613 -0.0001004 0.0000172 -0.0000890 -0.0000806 -0.0004673 0.0000295 -0.0004075 0.0001741 -0.0004248 0.0002928 -0.0000396 0.0001458 -0.0002162 0.0000240 -0.0005311 -0.0000809 -0.0001639 0.0004045 -0.0006698 0.0001343 -0.0005133 0.0003509 -0.0006112 0.0001653 -0.0003598 0.0001222 -0.0002350 0.0001483 -0.0006090 0.0003938 -0.0010876 -0.0006557 -0.0002116 -0.0042880 0.0031283 0.0017576 -0.0014911 0.0000250 -0.0005672 0.0001890 -0.0005806 0.0000119 -0.0006005 -0.0012385 0.0013564 -0.0000664 -0.0005402 0.0006020 -0.0008483 0.0002018 -0.0004901 0.0000305 0.0001941 -0.0004588 -0.0002269 0.0000156 -0.0006141 0.0001911 -0.0007670 0.0000825 -0.0005179 0.0000864 -0.0000339 -0.0002637 -0.0002757 0.0000117 -0.0004796
-0.0001623 0.0003359 -0.0001986 0.0000752 0.0000700 -0.0002423 0.0001197 -0.0003175 0.0001463 -0.0004477 0.0000285 -0.0001384 0.0002743 0.0001372 0.0003380 -0.0003198 0.0002961 -0.0000279 0.0002381 -0.0003556 -0.0000054 -0.0003185 0.0002428 -0.0006332 0.0001295 -0.0004432 0.0000506 -0.0003656 0.0000339 -0.0005793 0.0001104 -0.0005730 -0.0000181 -0.0007471 0.0000776 -0.0005000 0.0001371 -0.0001995 0.0001601 -0.0005936 0.0001974 -0.0005972 0.0003092 -0.0008861 0.0001282 -0.0004113 0.0002025 -0.0005802 0.0006199 -0.0008765 0.0004144 -0.0013660 -0.0000120 -0.0004835 -0.0001236 -0.0002144 0.0000408 -0.0007912 -0.0000001 -0.0004285 0.0003055 -0.0007809 0.0003097 -0.0013334 0.0002443 -0.0009058 0.0000093 -0.0002059 0.0005963 -0.0012646 -0.0016165 -0.0004327 -0.0026280 -0.0010289 0.0002411 -0.0013335 -0.0002983 -0.0006335 0.0002330 -0.0010397 0.0002652 -0.0006981 0.0001325 -0.0007223 0.0004746 -0.0012059 0.0001667 -0.0005586 -0.0000238 -0.0001100 -0.0002327 -0.0000879 0.0000943 -0.0003447 0.0001701 -0.0005538 0.0000359 -0.0004398 0.0002711 -0.0004613 -0.0003170 -0.0002175 0.0001209 -0.0003828 0.0000999 -0.0006221 0.0007311 -0.0012898 0.0002042 -0.0009737 0.0000559 -0.0004428 0.0000180 -0.0001829 0.0000636 -0.0001405 0.0000246 -0.0001990 -0.0000204 -0.0002214 0.0000004 -0.0006409 0.0000005 -0.0004609 0.0001975 -0.0004883 0.0002974 -0.0001096 0.0001559 -0.0002899 -0.0000190 -0.0007341 -0.0000887 -0.0002152 0.0007592 -0.0011009 0.0001165 -0.0005784 0.0003617 -0.0004466 0.0001984 -0.0004470 0.0005666 -0.0007443 0.0001449 -0.0005173 -0.0000807 -0.0005167 0.0001534 -0.0003276 0.0020472 -0.0074210 -0.0012549 0.0004383 -0.0000061 -0.0005075 0.0000704 -0.0005103 -0.0001215 -0.0004836 -0.0007554 0.0010121 0.0004192 -0.0010409 0.0001497 -0.0004374 0.0002594 -0.0005246 0.0001403 0.0001381 -0.0005792 -0.0000527 -0.0000311 -0.0004134 0.0001274 -0.0007855 0.0001344 -0.0004829 0.0000396 0.0000258 -0.0001594 -0.0004433 0.0000318 -0.0003490
-0.0001395 0.0003202 -0.0001814 0.0001012 0.0000756 -0.0001881 0.0001427 -0.0002943 0.0001304 -0.0003900 0.0000461 -0.0001451 0.0002590 0.0002031 0.0002409 -0.0001421 0.0003465 0.0000556 0.0002461 -0.0002456 0.0001759 -0.0003700 0.0002065 -0.0003966 -0.0000044 -0.0002436 0.0000615 -0.0002980 0.0000467 -0.0003171 0.0001414 -0.0004846 -0.0000136 -0.0005550 0.0000976 -0.0002542 0.0001451 -0.0001431 0.0001479 -0.0005067 0.0001212 -0.0004413 0.0001316 -0.0006094 0.0001400 -0.0002105 0.0001631 -0.0004558 0.0006460 -0.0008037 0.0004575 -0.0010649 -0.0000172 -0.0002410 0.0000551 -0.0002447 0.0000561 -0.0004550 0.0001029 -0.0002502 0.0003217 -0.0006525 0.0003241 -0.0009774 0.0002647 -0.0007680 0.0000650 -0.0001642 0.0010799 -0.0003962 -0.0011262 0.0000685 -0.0005809 -0.0000331 0.0002978 -0.0009786 -0.0002118 -0.0002473 0.0002475 -0.0008960 0.0001945 -0.0004762 -0.0000237 -0.0001509 0.0006966 -0.0010829 0.0002363 -0.0004350 0.0000757 -0.0001213 -0.0002510 0.0002138 0.0000932 -0.0002870 0.0001367 -0.0005586 0.0000176 -0.0003060 0.0002368 -0.0004321 -0.0009968 0.0002820 0.0000993 -0.0000576 0.0001072 -0.0005066 0.0004133 -0.0008214 0.0001865 -0.0006668 0.0000688 -0.0003636 0.0000266 -0.0000979 0.0000395 -0.0000815 0.0002246 -0.0002613 -0.0000057 -0.0000672 0.0002403 -0.0005868 -0.0000324 -0.0002654 0.0002122 -0.0003317 0.0002688 0.0000709 0.0001462 -0.0001467 -0.0000359 -0.0005984 -0.0000532 -0.0000909 0.0007495 -0.0009090 0.0001405 -0.0003952 0.0001636 -0.0000998 0.0001537 -0.0002712 -0.0003076 0.0001207 0.0001849 -0.0004057 -0.0002798 -0.0000757 0.0006391 -0.0005181 0.0082077 -0.0129636 -0.0021603 0.0006960 0.0000184 -0.0004214 0.0000549 -0.0004044 -0.0000364 -0.0003646 -0.0004487 0.0001155 0.0000135 -0.0004450 0.0001521 -0.0004126 0.0001069 -0.0001599 0.0001032 0.0002203 -0.0004653 0.0002539 0.0000282 -0.0001905 0.0001962 -0.0004760 0.0001505 -0.0002686 0.0000104 0.0001936 0.0003807 -0.0007506 0.0000001 -0.0000604
-0.0001122 0.0004025 -0.0001218 0.0001752 0.0000826 -0.0000447 0.0001403 -0.0001637 0.0001391 -0.0002333 0.0000519 0.0000223 0.0002460 0.0003461 0.0001312 0.0002100 0.0003456 0.0001583 0.0003029 -0.0000552 0.0000961 -0.0001999 0.0002218 -0.0000526 -0.0000588 -0.0000806 0.0000216 -0.0000910 0.0000630 0.0000631 0.0001386 -0.0002437 0.0000237 -0.0001954 0.0001169 0.0001106 0.0001497 -0.0000039 0.0000381 -0.0002793 0.0001641 -0.0002885 -0.0000467 -0.0000771 0.0001510 0.0000743 0.0001957 -0.0002654 0.0006645 -0.0006179 0.0004841 -0.0005619 0.0000907 -0.0000118 0.0000277 -0.0000522 0.0000731 0.0000561 0.0001789 0.0000306 0.0003249 -0.0005106 0.0003194 -0.0006544 0.0003189 -0.0006519 0.0000562 -0.0000126 0.0011017 0.0001338 -0.0007240 0.0001572 0.0022025 -0.0006598 0.0002795 -0.0009266 0.0002355 -0.0000439 0.0002509 -0.0008007 0.0001079 -0.0003150 0.0003449 -0.0004860 0.0008546 -0.0010240 0.0000065 -0.0001649 0.0002710 -0.0002484 -0.0000840 0.0003246 0.0000816 -0.0001228 0.0001285 -0.0003972 0.0000771 -0.0001446 0.0001899 -0.0002416 -0.0006278 0.0000895 -0.0001026 0.0004501 0.0002002 -0.0003613 0.0001366 -0.0002706 0.0001318 -0.0001785 0.0000756 -0.0000578 0.0000208 0.0000927 -0.0000102 0.0001452 0.0001730 0.0000204 0.0000109 0.0001612 0.0001667 -0.0000616 -0.0000274 -0.0000444 0.0002205 -0.0000833 0.0002615 0.0003399 0.0001432 0.0000642 -0.0000264 -0.0002135 0.0000245 0.0000873 0.0005199 -0.0004665 0.0001816 -0.0001580 0.0001166 0.0000442 0.0001463 0.0000939 0.0008543 -0.0007429 0.0003140 -0.0002675 0.0001231 -0.0002911 0.0007938 -0.0008364 0.0071531 -0.0108338 0.0005464 -0.0004588 0.0000496 -0.0002396 0.0000386 -0.0001731 0.0000088 -0.0000661 -0.0022931 0.0017773 -0.0005235 0.0001277 0.0005024 -0.0007227 0.0000509 0.0001589 0.0000512 0.0003094 -0.0001889 0.0004701 0.0000355 -0.0001446 0.0001753 -0.0003199 0.0000748 -0.0000896 -0.0000047 0.0003114 0.0004945 -0.0009401 0.0000315 -0.0002580
-0.0001300 0.0004503 -0.0001107 0.0001785 0.0001069 -0.0000669 0.0001380 -0.0001836 0.0001184 -0.0002415 0.0000463 0.0000046 0.0002726 0.0003496 0.0000685 0.0002445 0.0004883 -0.0000339 0.0003594 -0.0001504 0.0000758 -0.0001911 0.0000676 -0.0000544 -0.0001160 -0.0001820 0.0000224 -0.0001478 0.0000599 -0.0001763 0.0001288 -0.0003199 0.0000012 -0.0003068 0.0001051 -0.0001602 0.0001497 -0.0000799 0.0001773 -0.0004252 0.0002155 -0.0003622 -0.0002847 -0.0001401 0.0001344 -0.0001637 0.0002201 -0.0003954 0.0006891 -0.0007530 0.0004578 -0.0009526 0.0001016 -0.0002286 0.0002886 -0.0003038 0.0000411 -0.0003809 0.0001703 -0.0003105 0.0003323 -0.0006534 0.0003293 -0.0010782 0.0003404 -0.0008430 0.0000198 -0.0000930 0.0007304 -0.0005161 0.0002488 -0.0007669 0.0036226 -0.0040517 0.0002365 -0.0013192 0.0003642 -0.0005320 0.0002454 -0.0009263 0.0001626 -0.0004266 0.0005751 -0.0010587 0.0005880 -0.0011980 0.0000211 -0.0003127 -0.0000688 -0.0000412 -0.0001404 0.0003346 0.0000658 -0.0000954 0.0000716 -0.0003310 0.0001190 -0.0001595 0.0001417 -0.0002629 -0.0001625 -0.0005837 0.0002718 0.0000162 0.0001593 -0.0003513 -0.0001109 -0.0002245 0.0001560 -0.0003296 0.0001721 -0.0001183 0.0000066 0.0001435 -0.0000154 0.0001022 0.0001274 0.0000539 -0.0000129 0.0001434 0.0000205 -0.0000690 0.0000016 -0.0001743 0.0002088 -0.0001896 0.0002726 0.0002180 0.0001533 -0.0000427 -0.0000366 -0.0003677 -0.0000259 -0.0000273 -0.0000695 -0.0000342 0.0002074 -0.0003048 0.0000352 -0.0000082 0.0001346 0.0000031 0.0011685 -0.0016725 0.0002133 -0.0003295 0.0000726 -0.0003715 0.0005774 -0.0011280 0.0030530 -0.0017195 0.0015297 -0.0008113 0.0000457 -0.0004561 0.0000234 -0.0003523 0.0001541 -0.0003379 -0.0007432 0.0004913 -0.0000880 -0.0001889 0.0003774 -0.0007691 0.0000751 -0.0000292 0.0000358 0.0003237 -0.0000252 0.0000657 0.0001250 -0.0004209 0.0000171 -0.0004313 -0.0000015 -0.0001988 -0.0000720 0.0002993 0.0005934 -0.0011124 0.0000356 -0.0005022
-0.0001720 0.0004182 -0.0001687 0.0001361 0.0001184 -0.0002252 0.0001709 -0.0003589 0.0001036 -0.0003979 0.0000211 -0.0001862 0.0002903 0.0002675 0.0000384 -0.0001048 0.0005008 -0.0001919 0.0003855 -0.0003678 0.0000336 -0.0003365 -0.0000243 -0.0003284 -0.0004028 -0.0000769 0.0000448 -0.0003638 0.0000347 -0.0006201 0.0001455 -0.0006012 -0.0000161 -0.0007331 0.0000713 -0.0006260 0.0001527 -0.0002690 0.0001386 -0.0005506 0.0001739 -0.0006197 -0.0000381 -0.0008695 0.0001323 -0.0005767 0.0001883 -0.0006582 0.0007197 -0.0010456 0.0004381 -0.0016763 0.0001077 -0.0005977 0.0001444 -0.0003810 0.0000022 -0.0011182 0.0001009 -0.0007501 0.0003471 -0.0008709 0.0003537 -0.0016114 0.0003337 -0.0010573 0.0000409 -0.0003098 0.0005361 -0.0012063 0.0003532 -0.0010818 0.0032870 -0.0063877 0.0002362 -0.0015012 0.0003767 -0.0011131 0.0002880 -0.0011239 0.0001007 -0.0005029 0.0001382 -0.0009929 -0.0004229 -0.0006187 0.0001487 -0.0005242 0.0001434 -0.0003292 -0.0002260 0.0002852 0.0000748 -0.0002262 0.0000710 -0.0004676 0.0000682 -0.0002501 0.0001485 -0.0003318 0.0007062 -0.0014950 0.0003814 -0.0006040 0.0000869 -0.0005144 -0.0000432 -0.0004379 0.0001866 -0.0006738 0.0001033 -0.0003969 0.0000788 -0.0000436 -0.0000088 -0.0000811 0.0001982 -0.0002113 -0.0000132 -0.0000304 0.0000515 -0.0005433 0.0000620 -0.0004677 0.0002030 -0.0004823 0.0002504 -0.0000383 0.0001490 -0.0002945 -0.0000581 -0.0007969 -0.0000301 -0.0003862 -0.0001473 -0.0002441 0.0002094 -0.0006045 0.0001753 -0.0003858 0.0001012 -0.0002892 -0.0000708 -0.0008124 0.0001206 -0.0006313 -0.0001085 -0.0006390 0.0005833 -0.0009824 -0.0039631 0.0050717 0.0009951 -0.0004889 0.0000156 -0.0007835 0.0000504 -0.0005657 0.0001925 -0.0007982 0.0007437 -0.0006336 -0.0000346 -0.0004144 0.0003029 -0.0007161 0.0000435 -0.0001998 0.0000108 0.0003300 -0.0001700 -0.0000223 0.0001326 -0.0005607 -0.0000376 -0.0005000 0.0000933 -0.0004239 0.0000745 -0.0000164 0.0007901 -0.0016244 0.0000157 -0.0004210
-0.0001690 0.0003872 -0.0002093 0.0001666 0.0000931 -0.0002525 0.0001781 -0.0004011 0.0001056 -0.0004457 0.0000217 -0.0002791 0.0003236 0.0002476 0.0002707 -0.0002329 0.0004257 -0.0000859 0.0003699 -0.0003192 -0.0000029 -0.0003259 0.0001090 -0.0003241 0.0001096 -0.0005356 0.0000458 -0.0003560 0.0000435 -0.0004967 0.0001442 -0.0005797 0.0000176 -0.0007810 0.0000810 -0.0004688 0.0001540 -0.0002410 -0.0000863 -0.0003190 0.0001259 -0.0006245 0.0001020 -0.0008793 0.0001579 -0.0004155 0.0002090 -0.0006203 0.0007223 -0.0009886 0.0004815 -0.0014324 0.0002225 -0.0006087 -0.0001959 -0.0001502 0.0000339 -0.0007811 0.0001119 -0.0005405 0.0003719 -0.0007872 0.0003756 -0.0013054 0.0003487 -0.0009404 0.0000152 -0.0001476 -0.0000197 0.0001469 -0.0010648 0.0005140 0.0013813 -0.0036116 0.0002848 -0.0012226 0.0000783 -0.0005592 0.0002933 -0.0010641 0.0000194 -0.0004125 0.0000827 -0.0006522 -0.0008330 -0.0001956 0.0001707 -0.0003843 0.0005854 -0.0007066 0.0001391 0.0000819 0.0000887 -0.0002684 0.0001179 -0.0005290 0.0001223 -0.0003009 -0.0000398 -0.0000227 0.0010710 -0.0010693 -0.0001445 -0.0001215 0.0001492 -0.0005549 0.0004094 -0.0006863 0.0001972 -0.0005602 0.0002146 -0.0004838 0.0000764 -0.0000488 0.0000116 -0.0000622 0.0001339 -0.0001281 -0.0000140 -0.0000125 -0.0000196 -0.0003792 0.0000414 -0.0003929 0.0002114 -0.0003837 0.0002583 0.0000181 0.0001400 -0.0002341 -0.0000550 -0.0006866 0.0000401 -0.0003115 0.0002188 -0.0007432 0.0001961 -0.0005026 0.0003293 -0.0006388 0.0001500 -0.0002519 0.0011036 -0.0004573 0.0002811 -0.0006704 -0.0000990 -0.0004506 0.0005695 -0.0007755 -0.0013625 -0.0008988 -0.0005387 -0.0008235 0.0000723 -0.0006426 0.0001154 -0.0004167 0.0001585 -0.0005940 0.0002371 -0.0012382 -0.0004700 -0.0002135 -0.0001526 -0.0001190 -0.0000192 -0.0001651 0.0000391 0.0003333 0.0000214 -0.0000810 0.0000387 -0.0003297 0.0001485 -0.0004407 0.0001322 -0.0003198 0.0001108 -0.0000251 0.0000123 -0.0007171 0.0000001 -0.0001872
-0.0001321 0.0004144 -0.0001678 0.0002349 0.0000713 -0.0001381 0.0001580 -0.0002710 0.0001233 -0.0003593 0.0000340 -0.0001974 0.0003320 0.0003278 0.0002594 0.0000809 0.0003586 0.0001446 0.0004066 -0.0001923 0.0000752 -0.0002253 0.0002736 -0.0003380 0.0003153 -0.0007686 0.0000389 -0.0001787 0.0000848 -0.0001746 0.0001146 -0.0003455 0.0000284 -0.0004953 0.0001221 -0.0001499 0.0001587 -0.0001093 -0.0000924 -0.0000941 0.0000929 -0.0004491 0.0000615 -0.0004821 0.0001672 -0.0001140 0.0002174 -0.0004059 0.0007490 -0.0008247 0.0005192 -0.0009168 0.0001474 -0.0003450 0.0000671 -0.0001581 0.0001050 -0.0002321 0.0001181 -0.0000868 0.0003961 -0.0005926 0.0003877 -0.0007933 0.0003929 -0.0007683 0.0000834 0.0000018 -0.0005041 0.0013826 -0.0008300 0.0006466 -0.0004426 -0.0001652 0.0002908 -0.0007051 0.0000152 -0.0000433 0.0003209 -0.0008521 0.0001190 -0.0002100 0.0002321 -0.0001694 -0.0003681 -0.0000869 0.0002297 -0.0002871 0.0002920 -0.0001410 0.0001678 0.0002032 0.0000861 -0.0001473 0.0000471 -0.0003568 0.0001446 -0.0001817 -0.0000635 0.0002081 0.0007836 -0.0005119 -0.0002360 0.0002005 0.0002479 -0.0004077 0.0002185 -0.0001588 0.0001552 -0.0002236 0.0003134 -0.0003568 -0.0000168 0.0001025 0.0000156 0.0000660 0.0001348 0.0000798 0.0000005 0.0000859 -0.0000173 0.0000215 -0.0000020 -0.0001587 0.0002331 -0.0001208 0.0002837 0.0002285 0.0001383 -0.0000254 -0.0000049 -0.0003033 0.0000591 -0.0000405 0.0000091 -0.0002010 0.0002027 -0.0002451 0.0002547 -0.0002841 0.0002529 -0.0001131 0.0012408 0.0005366 0.0002893 -0.0005265 0.0000276 -0.0000304 0.0001740 -0.0002951 -0.0049057 0.0044730 -0.0021749 0.0001216 0.0001009 -0.0003652 0.0001919 -0.0002227 0.0000789 -0.0001812 -0.0003387 -0.0005292 -0.0002188 -0.0003655 -0.0006862 0.0005275 -0.0000768 0.0000764 -0.0001131 0.0004456 0.0000895 -0.0001125 0.0000589 -0.0000130 0.0003129 -0.0003368 0.0000569 -0.0000168 0.0000409 0.0002082 -0.0000689 0.0001453 0.0000035 0.0001359
-0.0000986 0.0005118 -0.0000634 0.0003406 0.0000793 0.0000069 0.0001463 -0.0001064 0.0001243 -0.0001656 0.0000445 0.0000165 0.0002644 0.0005461 0.0000302 0.0005541 0.0005523 0.0002590 0.0004009 0.0000581 0.0000443 -0.0000333 0.0002953 -0.0002922 -0.0001081 -0.0000531 -0.0000008 0.0000482 0.0001055 0.0001178 0.0001349 -0.0000886 0.0000267 -0.0000719 0.0001360 -0.0000743 0.0001789 -0.0000454 0.0000225 -0.0000631 0.0001788 -0.0003173 -0.0000567 -0.0001654 0.0001767 -0.0001800 0.0002297 -0.0003132 0.0007494 -0.0008418 0.0005176 -0.0010900 0.0001373 -0.0002876 0.0001195 -0.0002115 0.0001705 -0.0004815 0.0000599 -0.0001926 0.0003838 -0.0006154 0.0003841 -0.0009680 0.0004078 -0.0008162 0.0001132 -0.0000418 -0.0006642 0.0005283 -0.0003567 -0.0000655 0.0017529 -0.0018488 0.0003258 -0.0009388 -0.0003594 0.0002586 0.0003464 -0.0008691 0.0002486 -0.0002577 0.0000087 -0.0002641 -0.0004122 0.0003508 0.0001775 -0.0002773 0.0000516 0.0000402 -0.0000303 0.0002608 0.0000885 0.0000659 -0.0000104 -0.0001127 0.0001152 0.0000508 -0.0000470 0.0004559 0.0007641 -0.0006894 0.0000113 0.0002820 0.0001896 -0.0000688 -0.0000532 0.0003865 0.0001629 0.0001723 0.0001429 0.0000179 -0.0000875 0.0003371 0.0000192 0.0002494 0.0000390 0.0003387 -0.0000020 0.0002453 0.0001363 0.0000086 0.0000320 -0.0000992 0.0002721 -0.0000463 0.0003049 0.0003401 0.0001528 0.0000308 0.0000501 -0.0000109 0.0000487 -0.0000598 -0.0001465 0.0004013 0.0001559 -0.0001671 -0.0000086 0.0001507 0.0002790 -0.0001033 -0.0004656 0.0012309 0.0002346 -0.0004483 0.0003750 -0.0004715 -0.0000011 -0.0005222 -0.0053726 0.0083551 -0.0033610 0.0034343 0.0000662 -0.0004834 0.0002820 -0.0003642 0.0000939 -0.0002575 0.0003052 -0.0003038 -0.0002350 -0.0000184 -0.0006329 0.0005221 -0.0001847 0.0004356 -0.0001273 0.0004072 -0.0001086 0.0001112 0.0001255 -0.0002344 0.0002440 -0.0003822 0.0001080 -0.0001289 0.0000387 0.0001585 0.0002821 -0.0002443 0.0000258 -0.0000399
-0.0001289 0.0005349 -0.0000762 0.0003572 0.0000939 -0.0000743 0.0001396 -0.0001868 0.0001120 -0.0002453 0.0000296 -0.0000592 0.0002526 0.0004991 0.0001879 0.0002723 0.0005846 0.0002738 0.0003640 0.0000188 0.0000475 0.0000143 0.0000427 -0.0002166 0.0000073 -0.0000243 0.0000052 -0.0000730 0.0000844 -0.0001770 0.0001398 -0.0002634 -0.0000010 -0.0002866 0.0001120 -0.0003578 0.0001902 -0.0001333 0.0002032 -0.0003940 0.0001592 -0.0003713 -0.0000389 -0.0004308 0.0001474 -0.0003959 0.0002106 -0.0004182 0.0007411 -0.0009877 0.0004940 -0.0015035 0.0000581 -0.0003391 -0.0000271 -0.0003403 0.0001256 -0.0009379 -0.0001394 -0.0003988 0.0003882 -0.0007745 0.0003907 -0.0014263 0.0003719 -0.0009596 -0.0000017 -0.0000536 -0.0019954 0.0007311 -0.0002832 -0.0000908 0.0014355 -0.0019249 0.0003516 -0.0014808 -0.0006563 0.0001413 0.0003064 -0.0010688 0.0001436 -0.0003723 0.0001167 -0.0007587 -0.0005178 0.0001447 0.0000758 -0.0002961 -0.0002743 -0.0001479 0.0000861 0.0000160 0.0001030 0.0000073 0.0000639 -0.0002314 0.0001460 0.0000006 0.0001597 0.0000087 0.0001560 0.0002275 0.0004753 -0.0000264 0.0001227 -0.0001491 0.0000433 -0.0001999 0.0001831 -0.0000091 0.0000986 -0.0000749 -0.0001222 0.0002268 -0.0000118 0.0001939 0.0000567 0.0001223 -0.0000141 0.0001457 0.0001062 -0.0002354 0.0001027 -0.0002779 0.0002703 -0.0001604 0.0003614 0.0003196 0.0001575 -0.0000901 0.0001251 -0.0000992 -0.0000195 -0.0001893 0.0000774 0.0001265 0.0001300 -0.0003989 0.0000154 -0.0000669 0.0002795 -0.0002718 -0.0005521 0.0010888 0.0002863 -0.0006821 0.0003916 -0.0008134 -0.0006532 0.0003273 0.0006372 0.0009441 -0.0001110 -0.0000607 0.0000612 -0.0007308 0.0001007 -0.0004992 0.0000747 -0.0004735 0.0010715 -0.0008911 0.0002495 -0.0002688 -0.0002927 0.0001961 -0.0001593 0.0002591 -0.0000525 0.0002983 0.0000046 -0.0002422 0.0002143 -0.0006538 0.0001575 -0.0006754 0.0001798 -0.0004193 -0.0000338 0.0000451 0.0004074 -0.0008435 -0.0000067 -0.0003290
-0.0001820 0.0004874 -0.0001494 0.0002754 0.0000836 -0.0002383 0.0001463 -0.0003793 0.0001180 -0.0004738 -0.0000011 -0.0002912 0.0003217 0.0002666 0.0003091 -0.0001916 0.0004260 0.0001928 0.0003948 -0.0002318 0.0001372 -0.0002409 -0.0000696 -0.0003040 0.0004617 -0.0004931 0.0000047 -0.0002639 0.0000597 -0.0005569 0.0001200 -0.0005516 0.0000075 -0.0007742 0.0001055 -0.0005329 0.0001845 -0.0002118 0.0002272 -0.0005795 0.0000061 -0.0004392 -0.0000795 -0.0005202 0.0001428 -0.0004046 0.0001572 -0.0005095 0.0007533 -0.0010250 0.0005234 -0.0014158 0.0000230 -0.0003878 -0.0002000 -0.0001382 0.0001672 -0.0008116 -0.0000747 -0.0003367 0.0004175 -0.0007650 0.0004231 -0.0013288 0.0003727 -0.0009494 -0.0000220 0.0000057 -0.0015433 0.0002907 0.0006637 -0.0009049 -0.0024427 -0.0002275 0.0003391 -0.0012664 -0.0000880 -0.0002548 0.0003240 -0.0010996 0.0000411 -0.0002518 0.0003832 -0.0005104 -0.0001269 -0.0005207 0.0000584 -0.0002795 -0.0003237 0.0000717 0.0002584 -0.0001804 0.0001057 -0.0001721 0.0000804 -0.0004385 0.0001569 -0.0001863 0.0003150 -0.0004748 -0.0002875 0.0003284 0.0005678 -0.0005239 0.0002344 -0.0005691 0.0001632 -0.0006927 0.0001319 -0.0004269 0.0002173 -0.0004715 -0.0000539 -0.0000959 -0.0000082 -0.0000161 0.0001095 -0.0001398 -0.0000493 -0.0000486 0.0000855 -0.0003894 0.0000740 -0.0003627 0.0002581 -0.0002161 0.0003991 0.0003411 0.0001727 -0.0001673 0.0001818 -0.0001881 0.0000013 -0.0002659 0.0000215 0.0000793 0.0001789 -0.0005262 0.0003619 -0.0003521 0.0002622 -0.0002527 0.0002534 0.0000234 0.0003025 -0.0007376 0.0000761 -0.0004561 -0.0009736 0.0010587 0.0034386 -0.0023403 0.0024692 -0.0032034 0.0000736 -0.0007037 -0.0000449 -0.0003487 0.0000762 -0.0003994 0.0006590 -0.0003432 0.0007763 -0.0008960 -0.0001874 0.0001943 -0.0000071 0.0001627 -0.0000380 0.0002155 0.0000775 -0.0002263 0.0001588 -0.0003918 0.0000973 -0.0005725 0.0002159 -0.0004204 0.0000232 -0.0000803 0.0003905 -0.0006847 -0.0000120 -0.0001759
-0.0001665 0.0004869 -0.0001355 0.0002667 0.0000865 -0.0001989 0.0001460 -0.0003351 0.0001344 -0.0004167 0.0000021 -0.0002593 0.0002934 0.0003084 0.0001768 0.0000866 0.0004431 0.0001071 0.0003767 -0.0001127 0.0000450 -0.0001290 0.0000178 -0.0002526 0.0002317 -0.0002314 -0.0000052 -0.0001622 0.0000792 -0.0003141 0.0001593 -0.0004650 0.0000336 -0.0006004 0.0001257 -0.0003099 0.0001854 -0.0001530 0.0000254 -0.0003043 0.0000919 -0.0004197 -0.0003877 -0.0000362 0.0001839 -0.0002517 0.0001806 -0.0004528 0.0007675 -0.0009553 0.0005495 -0.0011235 0.0000794 -0.0003435 -0.0003425 0.0000646 0.0001723 -0.0004301 0.0001177 -0.0002197 0.0004405 -0.0006730 0.0004502 -0.0010123 0.0004100 -0.0008747 0.0000897 -0.0000486 0.0003148 -0.0010170 0.0007580 -0.0007799 -0.0030196 0.0028975 0.0003962 -0.0009514 0.0001338 -0.0000807 0.0004354 -0.0010311 0.0001496 -0.0002832 0.0004760 -0.0001830 0.0000807 -0.0003652 0.0001017 -0.0001727 0.0001629 -0.0000229 0.0001515 0.0000727 0.0000975 -0.0001113 0.0000842 -0.0003961 0.0001635 -0.0001373 0.0001260 -0.0001209 -0.0000105 -0.0002698 0.0002333 -0.0004545 0.0002365 -0.0004324 0.0002713 -0.0005526 0.0000901 -0.0002038 0.0003300 -0.0004548 -0.0000333 0.0000010 0.0000047 0.0000603 0.0001530 -0.0001718 0.0000019 -0.0000210 0.0001285 -0.0002137 0.0000134 -0.0002363 0.0002556 -0.0000937 0.0003781 0.0004174 0.0001975 -0.0000762 0.0001993 0.0000157 -0.0000158 -0.0001204 -0.0000387 -0.0000707 0.0001225 -0.0002380 0.0001865 -0.0002630 0.0001589 0.0000198 -0.0000979 -0.0005493 0.0002332 -0.0004792 -0.0000556 -0.0000533 -0.0008117 0.0007902 0.0064415 -0.0048510 0.0009110 -0.0005913 0.0000477 -0.0005387 0.0000280 -0.0003538 0.0001977 -0.0003069 0.0007177 0.0001742 0.0001397 -0.0002358 -0.0003572 0.0004859 -0.0000124 0.0001531 -0.0000316 0.0002235 -0.0000102 0.0001479 0.0000979 -0.0001088 0.0000619 -0.0001177 0.0001905 -0.0002507 0.0000579 -0.0000850 0.0007066 -0.0004782 0.0000400 0.0000111
-0.0001031 0.0005021 -0.0000964 0.0003204 0.0001019 -0.0000756 0.0001510 -0.0002214 0.0001270 -0.0002548 0.0000324 -0.0001301 0.0002605 0.0004493 0.0001799 0.0003688 0.0004341 0.0002672 0.0003672 0.0000712 0.0001850 -0.0001361 0.0001363 -0.0000838 0.0000924 -0.0002388 0.0000069 -0.0000209 0.0000940 0.0000573 0.0001893 -0.0002656 0.0000546 -0.0001931 0.0001347 0.0000166 0.0001851 -0.0000220 0.0000903 -0.0001713 0.0001533 -0.0002871 -0.0001849 0.0000622 0.0001945 -0.0001040 0.0001906 -0.0003101 0.0008029 -0.0008682 0.0005693 -0.0009640 0.0000936 -0.0002625 -0.0002069 0.0001727 0.0001294 -0.0003696 0.0000574 -0.0000246 0.0004394 -0.0006905 0.0004511 -0.0010809 0.0004398 -0.0008947 0.0001083 -0.0000353 0.0013433 -0.0012670 0.0003773 -0.0004391 -0.0015041 0.0034353 0.0004250 -0.0011359 0.0000429 -0.0002832 0.0004098 -0.0010274 0.0001937 -0.0003005 0.0003170 -0.0004520 -0.0004304 0.0002229 0.0001144 -0.0002092 0.0003736 -0.0003613 -0.0001187 0.0003744 0.0001053 0.0000249 0.0000514 -0.0002388 0.0001596 0.0000784 0.0000494 0.0001778 0.0001971 0.0001300 0.0000954 -0.0001450 0.0001427 -0.0000641 0.0003412 -0.0003621 0.0001825 0.0001082 0.0002468 -0.0002002 -0.0000739 0.0001809 -0.0000146 0.0002757 0.0002580 -0.0000448 0.0000592 0.0001251 0.0002472 0.0001481 -0.0000489 0.0000696 0.0002693 0.0001065 0.0003645 0.0005794 0.0001973 0.0001159 0.0001851 0.0003153 0.0000619 0.0000698 -0.0001801 0.0001175 0.0000953 0.0000234 -0.0000717 0.0000981 0.0001327 0.0001955 -0.0002016 -0.0001342 0.0000827 -0.0003341 0.0000699 0.0000367 -0.0007661 0.0003250 0.0013469 -0.0009121 0.0012156 -0.0015608 0.0000825 -0.0005289 0.0001234 -0.0003293 0.0001028 -0.0002795 -0.0008158 0.0011698 -0.0004677 0.0003784 -0.0004121 0.0004892 0.0001372 0.0001777 -0.0000477 0.0002423 0.0000924 -0.0002914 0.0001175 -0.0003501 0.0001268 -0.0002250 0.0001461 -0.0002844 0.0000344 -0.0000534 0.0004044 -0.0004515 0.0000417 -0.0001460
-0.0001106 0.0004829 -0.0001191 0.0002809 0.0001178 -0.0001375 0.0001444 -0.0002777 0.0001037 -0.0003313 0.0000237 -0.0001648 0.0003138 0.0004244 0.0002736 0.0000252 0.0004619 0.0002180 0.0003976 -0.0000507 0.0004246 -0.0003862 0.0000945 -0.0000740 0.0001916 -0.0004914 0.0000022 -0.0000851 0.0000860 -0.0001984 0.0001504 -0.0003461 0.0000238 -0.0003367 0.0001312 -0.0002685 0.0001798 -0.0001068 0.0001861 -0.0003767 0.0001175 -0.0003553 0.0002149 -0.0005294 0.0001670 -0.0003183 0.0001732 -0.0004054 0.0008207 -0.0009812 0.0005828 -0.0013478 0.0001973 -0.0005209 0.0000391 -0.0000862 0.0001386 -0.0008340 0.0000411 -0.0001927 0.0004387 -0.0007930 0.0004279 -0.0013877 0.0004488 -0.0010096 0.0000084 -0.0000054 0.0002019 0.0000987 -0.0001648 -0.0003624 -0.0021294 0.0036876 0.0003999 -0.0014632 0.0001917 -0.0009083 0.0003866 -0.0011983 0.0001254 -0.0002815 0.0000267 -0.0007148 -0.0007282 0.0001735 0.0001570 -0.0004109 0.0003419 -0.0003564 -0.0002200 0.0003236 0.0001095 -0.0000186 0.0001039 -0.0003303 0.0001295 0.0000901 0.0001080 -0.0000128 0.0004111 -0.0001729 0.0002336 -0.0001465 0.0001303 -0.0001935 0.0000464 -0.0002015 0.0002861 -0.0002144 -0.0000097 -0.0001835 -0.0000722 0.0000945 -0.0000148 0.0001734 0.0002207 0.0000134 -0.0000007 0.0001254 0.0003496 -0.0001551 -0.0000536 -0.0000646 0.0002730 -0.0000397 0.0003510 0.0004498 0.0001844 -0.0000052 0.0001324 0.0001295 0.0001662 -0.0001946 -0.0002530 0.0001576 0.0001164 -0.0002149 -0.0000055 0.0001518 0.0001394 0.0000164 0.0000596 -0.0004930 0.0002154 -0.0006735 0.0000907 -0.0001919 -0.0002051 -0.0004104 0.0016577 -0.0006913 0.0010779 -0.0012687 0.0001484 -0.0007464 0.0000443 -0.0003553 0.0001497 -0.0004909 -0.0014370 0.0003950 -0.0007261 0.0003189 0.0000804 -0.0002368 0.0002088 0.0000190 -0.0000177 0.0001186 0.0006462 -0.0010821 0.0001443 -0.0006235 0.0001838 -0.0005570 0.0001432 -0.0004990 0.0000808 -0.0001907 -0.0003407 -0.0004810 -0.0000105 -0.0003374
-0.0001940 0.0004834 -0.0001815 0.0002266 0.0001167 -0.0002654 0.0001343 -0.0003944 0.0001180 -0.0005260 0.0000289 -0.0003515 0.0003186 0.0002911 0.0004007 -0.0003511 0.0004403 0.0000475 0.0003876 -0.0002806 0.0003076 -0.0004387 0.0001433 -0.0004167 0.0000316 -0.0003506 -0.0000059 -0.0002685 0.0000639 -0.0006181 0.0001416 -0.0006059 0.0000062 -0.0007752 0.0001052 -0.0006611 0.0001763 -0.0002807 0.0001277 -0.0004890 0.0002914 -0.0007089 0.0002170 -0.0008615 0.0001530 -0.0005366 0.0002105 -0.0006089 0.0008006 -0.0010963 0.0005808 -0.0016269 0.0002949 -0.0007124 -0.0002372 -0.0000813 0.0002264 -0.0010650 0.0001446 -0.0005189 0.0004529 -0.0007981 0.0004546 -0.0013968 0.0004689 -0.0010648 -0.0000156 -0.0001184 -0.0003154 0.0003852 -0.0001329 -0.0003473 -0.0047720 0.0054041 0.0003671 -0.0013603 0.0001182 -0.0008296 0.0004453 -0.0012768 0.0000758 -0.0002957 0.0002959 -0.0005933 -0.0005987 0.0000971 0.0001720 -0.0003867 0.0003895 -0.0003331 -0.0002691 0.0002865 0.0001027 -0.0001486 0.0001196 -0.0004555 0.0001254 -0.0000793 0.0001809 -0.0001637 -0.0001444 -0.0005219 0.0000161 -0.0000379 0.0001220 -0.0004299 -0.0000165 -0.0005349 0.0002064 -0.0005509 0.0000713 -0.0005151 0.0000238 -0.0001752 -0.0000001 -0.0001041 0.0001752 -0.0001936 -0.0000100 -0.0000732 0.0001142 -0.0004149 0.0000447 -0.0004479 0.0002553 -0.0002421 0.0003251 0.0002280 0.0001757 -0.0002215 0.0000568 -0.0003593 0.0001561 -0.0005003 -0.0001392 -0.0001736 0.0002118 -0.0005532 0.0001191 -0.0002771 0.0002032 -0.0001858 -0.0005837 0.0001020 0.0003865 -0.0009511 -0.0000325 -0.0003833 -0.0003421 -0.0001681 0.0008354 -0.0001224 -0.0020975 0.0016063 0.0001195 -0.0008379 -0.0000972 -0.0005492 0.0002753 -0.0006680 0.0000692 -0.0007037 -0.0006505 0.0001570 0.0007436 -0.0008363 0.0001907 -0.0002227 -0.0000312 0.0000550 0.0001687 -0.0002919 0.0001092 -0.0005211 0.0002767 -0.0005989 0.0000966 -0.0004541 0.0000962 -0.0002484 -0.0002220 -0.0002480 -0.0000164 -0.0002262
-0.0002053 0.0004960 -0.0001693 0.0002444 0.0001062 -0.0002270 0.0001551 -0.0003703 0.0001538 -0.0005128 0.0000349 -0.0003354 0.0002876 0.0002958 0.0003387 -0.0002398 0.0005134 0.0000173 0.0004084 -0.0002353 0.0001264 -0.0003808 0.0001504 -0.0003909 0.0000219 -0.0003014 0.0000152 -0.0002473 0.0000602 -0.0003851 0.0001491 -0.0005209 0.0000541 -0.0006620 0.0001080 -0.0004164 0.0001721 -0.0002270 0.0000690 -0.0003773 0.0002963 -0.0006519 0.0000820 -0.0005436 0.0001775 -0.0003445 0.0002323 -0.0005326 0.0008181 -0.0010204 0.0005963 -0.0013208 0.0003320 -0.0006717 -0.0002459 0.0001374 0.0002714 -0.0007122 0.0001601 -0.0003362 0.0004610 -0.0006867 0.0004867 -0.0011235 0.0004681 -0.0009598 -0.0000224 -0.0000197 0.0005445 -0.0002844 0.0001663 0.0001379 -0.0015464 0.0014146 0.0003592 -0.0010422 0.0000054 -0.0002507 0.0004344 -0.0011790 0.0000551 -0.0002287 0.0002833 -0.0000790 0.0000296 -0.0002391 0.0001319 -0.0001713 0.0004665 -0.0005561 -0.0001259 0.0001008 0.0000939 -0.0001247 0.0000423 -0.0004052 0.0001540 -0.0001198 0.0001330 -0.0001157 -0.0007592 -0.0002778 -0.0001492 0.0001363 0.0001058 -0.0003711 0.0002869 -0.0007890 0.0001905 -0.0003675 0.0001490 -0.0004054 0.0000292 -0.0001836 -0.0000052 -0.0000682 0.0001381 -0.0001726 0.0000252 -0.0001097 0.0000264 -0.0000857 0.0000164 -0.0002907 0.0002700 -0.0000887 0.0003243 0.0003335 0.0001870 -0.0001498 0.0000044 -0.0003393 0.0001183 -0.0003126 0.0003414 -0.0002153 0.0002451 -0.0004193 0.0003046 -0.0004122 0.0002591 -0.0000739 -0.0010217 0.0004508 0.0003941 -0.0009025 -0.0000686 -0.0002739 -0.0011924 0.0004565 -0.0017899 0.0047308 -0.0019601 -0.0005008 0.0000740 -0.0006564 -0.0001010 -0.0004031 0.0001985 -0.0004525 0.0002474 0.0002122 -0.0004228 0.0000050 0.0004404 -0.0006097 0.0000369 0.0001827 0.0000131 0.0000884 -0.0002811 0.0003395 0.0000930 -0.0002812 0.0002388 -0.0004300 0.0000793 -0.0003027 0.0000307 -0.0001445 0.0003812 -0.0006358 -0.0000006 -0.0000470
-0.0001664 0.0005315 -0.0001029 0.0002753 0.0001148 -0.0001402 0.0001556 -0.0002436 0.0001706 -0.0003859 0.0000373 -0.0001756 0.0002593 0.0003878 0.0002022 0.0000416 0.0006049 0.0001306 0.0004413 -0.0000879 0.0001167 -0.0001219 -0.0000171 0.0000050 0.0000286 -0.0001043 0.0000415 -0.0000970 0.0000900 -0.0000346 0.0001682 -0.0003092 0.0000634 -0.0002911 0.0001329 -0.0000590 0.0001706 -0.0000912 0.0000328 -0.0002354 0.0000867 -0.0002761 -0.0000500 -0.0000185 0.0001930 -0.0000528 0.0002091 -0.0003192 0.0008589 -0.0008433 0.0006258 -0.0008229 0.0002646 -0.0003671 -0.0001381 0.0002876 0.0002346 -0.0000928 0.0000308 0.0002327 0.0004956 -0.0005320 0.0004993 -0.0007008 0.0004695 -0.0007902 -0.0000438 0.0002296 -0.0007548 0.0008420 -0.0001066 0.0004752 -0.0000955 0.0019832 0.0003512 -0.0008207 0.0003134 -0.0002177 0.0004062 -0.0010116 0.0000219 -0.0001405 0.0000413 -0.0000480 0.0007250 -0.0003904 0.0001351 -0.0001588 0.0001000 -0.0002608 -0.0000655 0.0001621 0.0000963 -0.0000294 0.0000841 -0.0003181 0.0001714 -0.0000381 0.0000927 -0.0000318 0.0003709 -0.0006259 -0.0000070 0.0000340 0.0001392 -0.0002402 0.0003435 -0.0005174 0.0002408 -0.0001454 -0.0000034 0.0000459 0.0000169 -0.0000454 -0.0000580 0.0001141 0.0001129 -0.0000226 0.0000280 0.0000622 0.0002167 0.0000245 -0.0000706 0.0000555 0.0002846 0.0001296 0.0003246 0.0005517 0.0001936 0.0000431 0.0000058 -0.0000436 0.0000302 0.0000593 0.0002094 -0.0000336 0.0001856 -0.0000918 0.0003511 -0.0001559 0.0002354 0.0001221 -0.0012637 0.0013251 0.0002557 -0.0005207 0.0000227 -0.0001410 -0.0009503 0.0004561 0.0034418 -0.0008785 -0.0001560 -0.0014593 0.0000920 -0.0004127 -0.0001347 -0.0000860 0.0000204 0.0000203 0.0008190 -0.0002010 -0.0000587 0.0000904 0.0002948 -0.0003325 -0.0000712 0.0005129 -0.0000395 0.0002033 0.0004652 -0.0001639 0.0000853 -0.0001671 0.0000892 -0.0003635 0.0002019 -0.0002785 -0.0000122 -0.0000137 0.0002476 -0.0007198 0.0000058 -0.0001001
-0.0001527 0.0005343 -0.0001054 0.0003069 0.0000904 -0.0001246 0.0001528 -0.0002682 0.0001622 -0.0003978 0.0000520 -0.0001607 0.0002622 0.0003337 0.0000382 0.0000710 0.0004910 0.0003109 0.0003848 -0.0001119 0.0002305 -0.0002682 -0.0000124 -0.0000468 0.0003947 -0.0003724 0.0000259 -0.0001025 0.0000842 -0.0002690 0.0001327 -0.0003569 0.0000612 -0.0004075 0.0001129 -0.0003326 0.0001761 -0.0001733 -0.0000163 -0.0001907 0.0001388 -0.0003689 0.0000823 -0.0002963 0.0001649 -0.0003001 0.0001800 -0.0004355 0.0008406 -0.0009198 0.0005991 -0.0012309 0.0000647 -0.0003718 -0.0000972 -0.0001370 0.0001472 -0.0005384 -0.0000273 0.0000181 0.0005000 -0.0006831 0.0004719 -0.0010821 0.0004868 -0.0009713 -0.0000375 0.0000529 -0.0013464 0.0009110 0.0000065 -0.0004154 -0.0018870 0.0032600 0.0003798 -0.0012848 0.0001860 -0.0003899 0.0003938 -0.0011204 0.0000204 -0.0003004 0.0001595 -0.0007603 0.0002606 -0.0003466 0.0001406 -0.0003378 -0.0000349 -0.0002393 -0.0001211 0.0001166 0.0000993 -0.0000264 0.0000543 -0.0002448 0.0002035 -0.0000919 0.0000756 -0.0002570 0.0008938 -0.0005789 -0.0002165 0.0000447 0.0002301 -0.0004547 0.0000005 -0.0004684 0.0002943 -0.0003779 0.0000497 -0.0000752 0.0000635 -0.0001500 -0.0000793 0.0000242 0.0001319 -0.0000573 0.0000524 -0.0000100 0.0003489 -0.0004839 -0.0000115 -0.0000992 0.0002617 0.0000135 0.0003233 0.0004260 0.0001842 -0.0000433 -0.0000118 -0.0002089 0.0000369 -0.0001441 0.0000362 -0.0003967 0.0002673 -0.0003684 0.0002344 -0.0000953 0.0002061 0.0000010 -0.0017430 0.0020612 0.0001335 -0.0005011 0.0002914 -0.0003728 -0.0005665 -0.0005823 -0.0028089 0.0053112 -0.0006780 0.0009222 0.0001218 -0.0006977 -0.0002087 -0.0002770 0.0000032 -0.0003674 0.0018164 -0.0027012 0.0003293 -0.0006354 0.0000302 -0.0002914 0.0000123 0.0001251 -0.0000694 0.0000838 0.0002867 -0.0002904 0.0000545 -0.0005208 0.0001248 -0.0006447 0.0002252 -0.0005197 0.0000233 -0.0001125 0.0002164 -0.0007814 -0.0000057 -0.0003703
-0.0001782 0.0004481 -0.0001791 0.0002785 0.0000971 -0.0002551 0.0001607 -0.0004322 0.0001708 -0.0006159 0.0000420 -0.0003303 0.0002734 0.0002084 0.0003152 -0.0004853 0.0004323 0.0002497 0.0003802 -0.0002854 0.0001462 -0.0004588 0.0000522 -0.0004085 0.0003390 -0.0005776 -0.0000035 -0.0002943 0.0000549 -0.0007269 0.0000734 -0.0006181 0.0000718 -0.0008585 0.0000895 -0.0008272 0.0001779 -0.0003510 0.0000388 -0.0004423 0.0002828 -0.0007215 0.0001510 -0.0006254 0.0001588 -0.0007375 0.0001629 -0.0007260 0.0008388 -0.0011617 0.0005871 -0.0019712 0.0000596 -0.0008079 -0.0000459 -0.0004989 0.0000747 -0.0013120 0.0000148 -0.0005123 0.0004857 -0.0008939 0.0004421 -0.0016434 0.0004824 -0.0012160 0.0000375 -0.0002897 0.0011153 -0.0018052 -0.0003099 -0.0002943 0.0004593 -0.0005751 0.0004611 -0.0017178 0.0000433 -0.0004553 0.0004494 -0.0014039 0.0001019 -0.0005013 0.0000565 -0.0010510 -0.0005086 -0.0000938 0.0001049 -0.0005141 0.0001221 -0.0005734 -0.0000981 -0.0002808 0.0001040 -0.0001727 0.0000435 -0.0004499 0.0001548 -0.0002125 -0.0000931 -0.0004852 0.0000410 -0.0005271 -0.0001086 -0.0003721 0.0002209 -0.0007876 -0.0002565 -0.0006272 0.0002323 -0.0006539 0.0001354 -0.0004708 -0.0000352 -0.0002855 -0.0000481 -0.0002017 0.0001732 -0.0003158 0.0000586 -0.0002236 0.0001432 -0.0006516 0.0000806 -0.0005089 0.0002537 -0.0002420 0.0003096 0.0001857 0.0001922 -0.0003277 -0.0000463 -0.0006101 0.0001301 -0.0006165 0.0002878 -0.0010375 0.0002329 -0.0006913 0.0001641 -0.0003647 0.0001956 -0.0003182 -0.0013387 0.0010349 0.0002718 -0.0010358 0.0000624 -0.0004413 -0.0014144 -0.0006021 0.0025131 0.0004739 0.0003723 0.0002229 0.0001497 -0.0011458 -0.0000216 -0.0007615 0.0000667 -0.0008988 0.0012373 -0.0017482 0.0005127 -0.0011815 -0.0005060 -0.0001330 -0.0000215 -0.0001463 -0.0000571 -0.0001018 0.0001551 -0.0005187 0.0000851 -0.0007891 0.0001493 -0.0008447 0.0001578 -0.0007151 0.0000317 -0.0002862 0.0006082 -0.0012733 -0.0000072 -0.0004890
-0.0002133 0.0004387 -0.0002081 0.0002295 0.0001212 -0.0003541 0.0001920 -0.0005253 0.0001847 -0.0007299 0.0000239 -0.0004083 0.0002047 0.0002988 0.0004811 -0.0004902 0.0004894 0.0001945 0.0004086 -0.0003619 0.0000966 -0.0004493 0.0001697 -0.0006402 -0.0001539 -0.0003543 0.0000114 -0.0003619 0.0000511 -0.0006641 0.0001063 -0.0006886 0.0000855 -0.0009515 0.0001058 -0.0007280 0.0001768 -0.0003346 0.0001143 -0.0005819 0.0002160 -0.0006869 0.0000078 -0.0004555 0.0001775 -0.0006134 0.0001773 -0.0007470 0.0008618 -0.0011420 0.0006320 -0.0017663 0.0001356 -0.0008392 -0.0003359 -0.0001045 0.0001972 -0.0011080 0.0002223 -0.0005643 0.0004943 -0.0007903 0.0004804 -0.0014128 0.0004980 -0.0011668 0.0000079 -0.0002767 0.0020559 -0.0028455 -0.0009490 0.0004450 0.0033510 -0.0015080 0.0004171 -0.0014306 0.0000830 -0.0004587 0.0004622 -0.0013942 0.0001802 -0.0004620 0.0004473 -0.0010522 0.0001954 -0.0004648 0.0000729 -0.0004588 0.0001468 -0.0006418 -0.0001983 -0.0003335 0.0001054 -0.0002555 0.0000142 -0.0005785 0.0001371 -0.0002996 0.0000958 -0.0004277 -0.0001208 -0.0006521 0.0004165 -0.0007851 0.0001452 -0.0007644 0.0000657 -0.0006932 0.0001661 -0.0006166 0.0002859 -0.0006296 -0.0000711 -0.0003086 -0.0000352 -0.0003011 0.0002056 -0.0004235 0.0000490 -0.0002607 -0.0000430 -0.0003859 0.0000308 -0.0004653 0.0002588 -0.0001540 0.0003029 0.0002445 0.0002141 -0.0003032 -0.0000410 -0.0006148 0.0001777 -0.0005941 0.0001805 -0.0010168 0.0001295 -0.0005228 0.0001140 -0.0005454 0.0002238 -0.0003614 -0.0001851 -0.0000289 0.0003529 -0.0009825 0.0000277 -0.0005107 -0.0007948 -0.0002096 0.0085269 -0.0096866 0.0000443 -0.0008417 0.0001178 -0.0010467 0.0002726 -0.0008100 0.0001202 -0.0008291 -0.0006179 0.0014651 0.0000736 -0.0006909 -0.0001567 -0.0000392 0.0000342 -0.0003017 -0.0001071 -0.0000931 0.0003996 -0.0007500 0.0000770 -0.0005351 0.0001434 -0.0007069 0.0001494 -0.0006754 0.0001169 -0.0003373 0.0002901 -0.0009575 0.0000425 -0.0004071
-0.0001936 0.0004910 -0.0001534 0.0002366 0.0001222 -0.0003103 0.0002237 -0.0004867 0.0001852 -0.0006149 0.0000247 -0.0002953 0.0002753 0.0002839 0.0003511 -0.0002325 0.0005397 0.0002361 0.0004169 -0.0002889 0.0001031 -0.0004717 0.0002703 -0.0005899 0.0000061 -0.0003494 0.0000192 -0.0002322 0.0000750 -0.0003823 0.0001397 -0.0005250 0.0000830 -0.0006987 0.0001257 -0.0004057 0.0001817 -0.0002137 0.0001567 -0.0004968 0.0001322 -0.0005197 -0.0000365 -0.0004804 0.0001936 -0.0003091 0.0001740 -0.0005677 0.0008636 -0.0009640 0.0006453 -0.0012496 0.0000830 -0.0006053 -0.0002550 0.0000557 0.0002292 -0.0006010 0.0003315 -0.0004449 0.0005149 -0.0006058 0.0005044 -0.0009688 0.0005068 -0.0009867 0.0000057 -0.0001505 -0.0000531 -0.0001474 -0.0014948 0.0008136 0.0045292 -0.0019853 0.0004645 -0.0010576 -0.0001425 -0.0001486 0.0004797 -0.0012404 0.0000868 -0.0003330 0.0004485 -0.0005282 0.0000192 -0.0003364 0.0000743 -0.0002556 0.0002087 -0.0004035 -0.0001936 -0.0003492 0.0001126 -0.0002011 0.0000792 -0.0005599 0.0001630 -0.0002263 0.0003227 -0.0004336 -0.0007177 -0.0000121 0.0005016 -0.0007063 0.0002076 -0.0007025 0.0002864 -0.0007782 0.0001346 -0.0004261 0.0002596 -0.0004784 0.0000166 -0.0003717 -0.0000430 -0.0002176 0.0002318 -0.0003444 0.0000396 -0.0001842 0.0001197 -0.0002507 -0.0000074 -0.0002662 0.0002710 0.0000727 0.0002965 0.0004283 0.0002229 -0.0001088 -0.0000022 -0.0003196 0.0001581 -0.0003517 0.0005165 -0.0012444 0.0002016 -0.0003615 0.0000152 -0.0001636 0.0002433 -0.0001796 -0.0007954 0.0003640 0.0003113 -0.0007150 0.0005168 -0.0007083 -0.0002125 0.0000525 0.0023087 -0.0048818 -0.0014164 -0.0003148 0.0000898 -0.0007624 0.0001914 -0.0005730 0.0003089 -0.0007250 -0.0004589 0.0013765 0.0001160 -0.0009078 0.0001202 0.0000956 0.0002458 -0.0003675 -0.0000815 -0.0001508 0.0000533 -0.0000218 0.0001008 -0.0002453 0.0001744 -0.0005081 0.0001603 -0.0004929 0.0001104 -0.0002419 0.0006244 -0.0010614 0.0000225 -0.0000680
-0.0001456 0.0005752 -0.0000845 0.0003459 0.0001192 -0.0001610 0.0001854 -0.0003133 0.0001898 -0.0004351 0.0000275 -0.0000735 0.0003574 0.0002925 0.0003102 -0.0001619 0.0005547 0.0003323 0.0004231 -0.0001350 0.0000426 -0.0001497 0.0002176 -0.0004236 0.0003186 -0.0002947 0.0000121 -0.0000721 0.0000989 -0.0001982 0.0001646 -0.0003449 0.0000678 -0.0003140 0.0001300 -0.0004272 0.0001986 -0.0001800 0.0002592 -0.0004691 0.0002088 -0.0004893 -0.0001518 -0.0002484 0.0001927 -0.0004040 0.0001853 -0.0005215 0.0008725 -0.0009694 0.0006311 -0.0014554 0.0001784 -0.0007668 0.0001007 -0.0001387 0.0000687 -0.0006975 0.0001943 -0.0005205 0.0005263 -0.0006570 0.0004900 -0.0011629 0.0005164 -0.0010169 0.0000587 -0.0002268 -0.0014225 0.0011300 -0.0015970 0.0003756 0.0033658 -0.0036379 0.0004797 -0.0013178 0.0003625 -0.0008308 0.0004894 -0.0013124 0.0000328 -0.0004202 0.0002563 -0.0005294 -0.0000431 -0.0007929 0.0002118 -0.0004683 0.0003637 -0.0006917 0.0000654 -0.0006675 0.0001215 -0.0000545 0.0001658 -0.0004926 0.0001450 0.0000080 0.0003059 -0.0003153 -0.0009613 0.0004301 0.0005137 -0.0006672 0.0002668 -0.0005364 0.0001457 -0.0005479 0.0001159 -0.0001760 0.0001147 -0.0002255 0.0000084 -0.0002968 -0.0000181 -0.0000777 0.0002231 -0.0002159 0.0000249 -0.0000421 0.0002408 -0.0003062 0.0000644 -0.0003297 0.0002840 0.0001009 0.0002859 0.0004693 0.0002156 -0.0000623 0.0000491 -0.0000928 0.0001001 -0.0003784 0.0004730 -0.0009595 0.0002401 -0.0003831 -0.0000153 0.0000299 0.0002159 -0.0002320 -0.0011017 -0.0003358 0.0002883 -0.0008246 0.0002469 -0.0004221 -0.0008702 0.0004552 0.0003112 -0.0000727 -0.0008338 0.0002732 0.0001188 -0.0009282 0.0001121 -0.0006403 0.0002273 -0.0006541 0.0007556 0.0001730 0.0003941 -0.0010629 -0.0001916 0.0002022 0.0000953 -0.0001216 -0.0000771 -0.0002785 0.0001099 -0.0000068 0.0000653 -0.0003971 0.0000708 -0.0005912 0.0001958 -0.0005569 -0.0000387 -0.0001687 0.0007307 -0.0011219 -0.0000600 -0.0001669
-0.0001702 0.0005858 -0.0001349 0.0003882 0.0000971 -0.0002324 0.0001679 -0.0003881 0.0002061 -0.0005811 0.0000173 -0.0001638 0.0002974 0.0002630 0.0002404 -0.0003053 0.0005335 0.0002841 0.0004136 -0.0002548 0.0000607 -0.0002265 0.0000526 -0.0004945 0.0000377 -0.0001012 -0.0000080 -0.0001823 0.0000857 -0.0005430 0.0001534 -0.0005326 0.0000253 -0.0005358 0.0001207 -0.0007754 0.0002021 -0.0002574 0.0002613 -0.0006166 0.0002859 -0.0006619 -0.0001191 -0.0003744 0.0001879 -0.0007148 0.0002479 -0.0007368 0.0008879 -0.0011227 0.0006324 -0.0019120 0.0001569 -0.0009942 0.0001169 -0.0004528 0.0000920 -0.0012639 0.0000896 -0.0008783 0.0005123 -0.0007999 0.0004751 -0.0016556 0.0005150 -0.0012270 0.0000255 -0.0003973 -0.0008646 0.0004876 -0.0005418 -0.0009703 0.0031126 -0.0059833 0.0003773 -0.0017480 0.0003224 -0.0010919 0.0004796 -0.0015473 0.0000990 -0.0006498 0.0003431 -0.0012220 0.0004993 -0.0014095 0.0002511 -0.0008048 0.0006683 -0.0014269 0.0000349 -0.0008807 0.0001283 -0.0001386 0.0001730 -0.0006271 0.0001587 -0.0002022 0.0002618 -0.0004080 -0.0001673 -0.0005488 0.0001480 -0.0006451 0.0002658 -0.0007361 0.0001464 -0.0006578 0.0001623 -0.0004734 0.0000496 -0.0003527 0.0000534 -0.0004360 -0.0000027 -0.0002090 0.0001618 -0.0003638 -0.0000228 -0.0001733 0.0001598 -0.0006280 0.0000464 -0.0005385 0.0002839 -0.0000406 0.0003030 0.0003040 0.0002294 -0.0002175 0.0001053 -0.0001902 0.0000251 -0.0005825 0.0004215 -0.0009146 0.0001667 -0.0005393 -0.0001372 -0.0001905 0.0002291 -0.0004765 0.0006884 -0.0022792 0.0002899 -0.0010746 0.0003362 -0.0007323 -0.0001784 -0.0001723 -0.0011527 0.0000210 -0.0002549 -0.0000042 0.0001255 -0.0012422 0.0000419 -0.0007810 0.0000168 -0.0008098 0.0005688 -0.0003687 -0.0000469 -0.0004879 -0.0004029 -0.0000358 -0.0000115 -0.0002887 -0.0000504 -0.0004362 0.0002811 -0.0009351 0.0000578 -0.0007953 0.0001545 -0.0009374 0.0002495 -0.0008976 -0.0000322 -0.0003303 0.0002349 -0.0010236 -0.0000786 -0.0004542
-0.0002257 0.0005395 -0.0001898 0.0002990 0.0001286 -0.0004482 0.0001790 -0.0005704 0.0002413 -0.0008654 0.0000321 -0.0004460 0.0002679 0.0001168 0.0005432 -0.0008362 0.0005718 0.0000563 0.0004000 -0.0004377 0.0000926 -0.0004515 0.0001341 -0.0006975 -0.0004662 -0.0000838 -0.0000205 -0.0003986 0.0000759 -0.0008823 0.0001163 -0.0007864 0.0000055 -0.0010034 0.0001184 -0.0008705 0.0001991 -0.0002894 0.0001397 -0.0006640 0.0001878 -0.0007148 0.0001578 -0.0007677 0.0001958 -0.0007042 0.0002868 -0.0008458 0.0009106 -0.0011391 0.0006641 -0.0017856 0.0001135 -0.0009478 0.0000290 -0.0005407 0.0002503 -0.0013493 0.0000306 -0.0008014 0.0005156 -0.0007378 0.0004735 -0.0015097 0.0005209 -0.0012780 0.0000850 -0.0005318 0.0001702 -0.0007330 0.0008320 -0.0015228 0.0006129 -0.0024914 0.0004185 -0.0016544 0.0005209 -0.0011241 0.0004710 -0.0015757 0.0001068 -0.0006900 0.0000499 -0.0010251 0.0001667 -0.0005270 0.0001904 -0.0008016 0.0003138 -0.0011131 -0.0001399 -0.0007251 0.0001369 -0.0003447 0.0002070 -0.0008605 0.0001347 -0.0004751 0.0002033 -0.0006318 0.0004088 -0.0017754 -0.0001198 -0.0007405 0.0002321 -0.0010883 0.0003047 -0.0011439 0.0001243 -0.0007993 0.0001218 -0.0006843 0.0000238 -0.0006659 -0.0000283 -0.0003185 0.0002479 -0.0007364 0.0000046 -0.0004485 0.0001525 -0.0008372 -0.0000445 -0.0005702 0.0002796 -0.0000582 0.0003216 0.0002550 0.0002212 -0.0002472 0.0001434 -0.0002586 0.0000520 -0.0006753 0.0001722 -0.0010590 0.0001833 -0.0006539 -0.0002059 -0.0002846 0.0002139 -0.0003971 0.0001579 -0.0011419 0.0003503 -0.0012559 0.0005172 -0.0009618 -0.0004863 0.0000915 -0.0080224 0.0068457 0.0024552 -0.0027359 0.0001601 -0.0011951 -0.0000964 -0.0007345 0.0001420 -0.0009292 0.0006115 -0.0011203 -0.0003119 -0.0001115 -0.0000342 -0.0004664 0.0003406 -0.0006263 0.0000317 -0.0005819 0.0001005 -0.0009006 0.0001899 -0.0008299 0.0003129 -0.0010312 0.0002210 -0.0008418 -0.0000092 -0.0004082 0.0004814 -0.0013615 -0.0000626 -0.0002937
-0.0002083 0.0005496 -0.0001648 0.0002746 0.0001517 -0.0004215 0.0001831 -0.0005285 0.0002540 -0.0008289 0.0000306 -0.0003955 0.0003141 0.0001002 0.0004806 -0.0007399 0.0005712 0.0000495 0.0003721 -0.0003440 0.0001437 -0.0004041 0.0002845 -0.0007307 -0.0007726 0.0001048 0.0000508 -0.0003891 0.0000931 -0.0006545 0.0001304 -0.0007090 0.0000384 -0.0008747 0.0001311 -0.0006492 0.0002047 -0.0002287 0.0000759 -0.0005527 0.0002471 -0.0006879 -0.0001031 -0.0004431 0.0002145 -0.0004891 0.0002853 -0.0007368 0.0009160 -0.0010270 0.0006950 -0.0014980 0.0002266 -0.0009046 0.0000186 -0.0005266 0.0002827 -0.0010010 -0.0000123 -0.0003462 0.0005301 -0.0006044 0.0004987 -0.0011590 0.0005352 -0.0011873 0.0001383 -0.0004680 -0.0001696 -0.0006459 0.0003185 -0.0004820 -0.0033782 0.0060198 0.0004544 -0.0013390 0.0008747 -0.0014106 0.0005051 -0.0014965 0.0000741 -0.0005652 -0.0001508 -0.0002596 0.0001341 -0.0003959 0.0001526 -0.0006436 0.0000962 -0.0010141 -0.0002859 -0.0005759 0.0001288 -0.0003036 0.0001282 -0.0007506 0.0001114 -0.0003983 0.0001064 -0.0005468 0.0007289 -0.0019542 0.0004685 -0.0010520 0.0002527 -0.0010468 0.0000161 -0.0008930 0.0001294 -0.0006506 0.0000328 -0.0004772 -0.0000072 -0.0005746 -0.0000251 -0.0001963 0.0002564 -0.0006848 0.0000171 -0.0004275 0.0001984 -0.0007238 -0.0000701 -0.0004925 0.0002569 0.0000730 0.0003362 0.0003660 0.0002505 -0.0001669 0.0001694 -0.0000721 0.0001292 -0.0005958 0.0000513 -0.0008084 0.0002114 -0.0006527 0.0000929 -0.0003816 0.0002275 -0.0002974 0.0003331 -0.0004517 0.0004124 -0.0011723 0.0001693 -0.0005573 -0.0005481 0.0002827 -0.0047199 0.0054284 0.0019808 -0.0014885 0.0001795 -0.0010473 -0.0000744 -0.0006169 0.0001954 -0.0007915 0.0012396 -0.0018160 -0.0002431 -0.0000889 0.0000753 -0.0007220 0.0004456 -0.0007460 -0.0000060 -0.0004475 -0.0002242 -0.0003107 0.0002777 -0.0006436 0.0002044 -0.0007380 0.0001300 -0.0006225 -0.0000074 -0.0003187 0.0005409 -0.0012826 -0.0000546 -0.0000923
-0.0001718 0.0006130 -0.0001223 0.0003372 0.0001211 -0.0002745 0.0001652 -0.0003873 0.0002816 -0.0006856 0.0000406 -0.0002070 0.0003181 0.0002654 0.0003626 -0.0003990 0.0006465 0.0001353 0.0003783 -0.0001943 0.0002120 -0.0004008 0.0002325 -0.0004985 -0.0003754 0.0000658 0.0000588 -0.0002240 0.0000929 -0.0003141 0.0001829 -0.0005544 0.0000889 -0.0005660 0.0001507 -0.0004439 0.0002128 -0.0001469 0.0000983 -0.0004931 0.0003040 -0.0005817 -0.0001838 -0.0001136 0.0002381 -0.0004856 0.0002604 -0.0006674 0.0009068 -0.0009807 0.0006971 -0.0015667 0.0002628 -0.0008994 -0.0000896 -0.0002736 0.0001969 -0.0010129 0.0002266 -0.0006298 0.0005294 -0.0006461 0.0005121 -0.0012933 0.0005354 -0.0011994 0.0000401 -0.0003306 -0.0001457 -0.0005110 -0.0002593 -0.0005042 -0.0019107 0.0044538 0.0004449 -0.0015462 0.0005267 -0.0014268 0.0005488 -0.0015426 0.0000978 -0.0006229 0.0001032 -0.0006282 0.0008798 -0.0013906 0.0001016 -0.0006918 0.0001453 -0.0008701 -0.0003355 -0.0006483 0.0001359 -0.0002030 0.0000567 -0.0006468 0.0001443 -0.0003040 -0.0000294 -0.0001520 0.0000908 -0.0011004 0.0004627 -0.0009053 0.0002586 -0.0008640 -0.0001743 -0.0003499 0.0001568 -0.0003394 -0.0000657 -0.0001925 0.0000274 -0.0003986 0.0000205 -0.0000742 0.0001217 -0.0004250 -0.0000283 -0.0001956 0.0001215 -0.0004264 -0.0000380 -0.0003825 0.0002420 0.0001905 0.0003361 0.0004714 0.0002636 -0.0000724 0.0001663 0.0001290 0.0002330 -0.0005751 0.0003528 -0.0007967 0.0001350 -0.0005299 0.0005875 -0.0006816 0.0003216 -0.0004370 0.0013172 -0.0011942 0.0003928 -0.0009650 0.0000565 -0.0005107 0.0003142 -0.0006980 0.0023931 -0.0026068 -0.0015380 0.0008123 0.0001376 -0.0010891 -0.0000140 -0.0007676 0.0000460 -0.0007664 0.0007292 -0.0016950 0.0003616 -0.0006749 0.0003531 -0.0009160 0.0001579 -0.0006923 -0.0000079 -0.0004000 -0.0006027 -0.0000049 0.0001660 -0.0007027 0.0000722 -0.0007169 0.0001575 -0.0007290 0.0000463 -0.0003327 0.0003726 -0.0014156 -0.0000346 -0.0002512
-0.0001745 0.0005916 -0.0001394 0.0003216 0.0001129 -0.0003141 0.0001611 -0.0004360 0.0002545 -0.0007297 0.0000406 -0.0002520 0.0002295 0.0003541 0.0002962 -0.0004100 0.0006174 0.0002251 0.0003629 -0.0002779 0.0002852 -0.0005488 0.0002990 -0.0005844 0.0002284 -0.0005843 0.0000220 -0.0003049 0.0000771 -0.0005824 0.0001707 -0.0006846 0.0000618 -0.0007526 0.0001386 -0.0006889 0.0002130 -0.0002116 0.0002759 -0.0007175 0.0002099 -0.0006260 0.0001760 -0.0005309 0.0002404 -0.0006922 0.0002455 -0.0007566 0.0009021 -0.0010652 0.0006919 -0.0018512 0.0002471 -0.0010550 -0.0001966 -0.0001073 0.0001679 -0.0014204 0.0002243 -0.0009016 0.0005292 -0.0007580 0.0004934 -0.0015745 0.0005296 -0.0013012 -0.0000686 -0.0003885 0.0014664 -0.0014436 0.0001801 -0.0019364 -0.0002172 0.0004102 0.0004427 -0.0019495 0.0002328 -0.0014058 0.0005231 -0.0016620 0.0001210 -0.0007710 0.0003812 -0.0013748 0.0008807 -0.0015267 0.0001470 -0.0009362 0.0000783 -0.0009516 -0.0001855 -0.0007847 0.0001318 -0.0002724 0.0001862 -0.0008507 0.0001238 -0.0003856 0.0000166 -0.0002994 0.0005496 -0.0018720 -0.0000139 -0.0005660 0.0001953 -0.0009484 0.0001606 -0.0008494 0.0001464 -0.0005775 0.0002604 -0.0008139 0.0000461 -0.0004934 0.0000510 -0.0001892 0.0000899 -0.0005571 -0.0000157 -0.0002455 0.0001207 -0.0006771 0.0000251 -0.0005514 0.0002425 0.0000761 0.0003109 0.0003796 0.0002383 -0.0001292 0.0001376 -0.0000496 0.0002101 -0.0006795 -0.0000060 -0.0004095 0.0001596 -0.0007231 0.0004686 -0.0007991 0.0003289 -0.0004986 0.0009714 -0.0019502 0.0002803 -0.0009986 -0.0000930 -0.0004008 0.0007901 -0.0011193 0.0006327 -0.0009635 0.0000488 -0.0017646 0.0000716 -0.0011775 0.0001356 -0.0011073 -0.0000400 -0.0008739 -0.0013820 -0.0005170 0.0001870 -0.0009757 0.0005530 -0.0008734 0.0000848 -0.0007384 0.0001175 -0.0006167 -0.0002848 -0.0004581 0.0000763 -0.0009079 0.0000838 -0.0009706 0.0001296 -0.0008952 0.0000202 -0.0003857 0.0001647 -0.0011273 -0.0000106 -0.0005487
-0.0001975 0.0005366 -0.0001784 0.0002225 0.0001409 -0.0004738 0.0002142 -0.0006185 0.0002165 -0.0008922 0.0000044 -0.0003974 0.0002919 0.0001825 0.0002730 -0.0006815 0.0003952 0.0003516 0.0003749 -0.0004588 0.0002996 -0.0007545 0.0001709 -0.0007245 0.0000965 -0.0007560 0.0000462 -0.0005303 0.0000762 -0.0009872 0.0001578 -0.0009460 0.0000103 -0.0011129 0.0001210 -0.0009384 0.0002022 -0.0002947 0.0003134 -0.0009488 0.0002253 -0.0008881 0.0001886 -0.0008112 0.0002369 -0.0007151 0.0003087 -0.0009239 0.0009114 -0.0011006 0.0007031 -0.0017865 0.0003032 -0.0011584 -0.0000549 -0.0004071 0.0002325 -0.0013212 0.0001935 -0.0008869 0.0005347 -0.0006971 0.0004977 -0.0014423 0.0005288 -0.0012947 -0.0000223 -0.0004845 0.0016171 -0.0019796 0.0000093 -0.0019155 -0.0043096 0.0032910 0.0004188 -0.0017511 0.0000246 -0.0011883 0.0005158 -0.0016683 0.0001770 -0.0008513 0.0004138 -0.0013340 -0.0002033 -0.0009783 0.0001926 -0.0009602 0.0002366 -0.0013225 -0.0001271 -0.0009297 0.0001278 -0.0004174 0.0002552 -0.0010533 0.0000873 -0.0005986 0.0001229 -0.0009193 0.0010619 -0.0027432 -0.0000149 -0.0008346 0.0001841 -0.0012056 0.0003780 -0.0015326 0.0001548 -0.0009925 0.0002934 -0.0011375 0.0000059 -0.0006390 -0.0000147 -0.0003390 0.0001258 -0.0007479 0.0000204 -0.0005091 0.0000893 -0.0009636 -0.0000033 -0.0007505 0.0002368 -0.0000270 0.0002917 0.0002945 0.0002498 -0.0002557 0.0000916 -0.0003493 0.0001005 -0.0007406 -0.0002153 -0.0005351 0.0002118 -0.0008643 -0.0000070 -0.0005473 0.0002509 -0.0003873 0.0004619 -0.0018919 0.0003686 -0.0011902 0.0000346 -0.0005244 0.0007445 -0.0009674 -0.0012974 -0.0018580 0.0000254 -0.0011292 0.0000981 -0.0011864 0.0003757 -0.0012298 0.0001190 -0.0009169 -0.0013304 -0.0005171 -0.0003014 -0.0005743 -0.0001013 -0.0005739 0.0002240 -0.0008579 0.0001429 -0.0006746 -0.0002066 -0.0003729 0.0001845 -0.0009349 0.0002843 -0.0009991 0.0001603 -0.0009304 0.0000358 -0.0003238 0.0005532 -0.0010985 -0.0000334 -0.0004158
-0.0001861 0.0005653 -0.0001626 0.0002215 0.0001677 -0.0004543 0.0002383 -0.0005894 0.0002639 -0.0008881 0.0000020 -0.0003203 0.0003196 0.0001836 0.0002767 -0.0005483 0.0003653 0.0004321 0.0003857 -0.0003799 0.0002783 -0.0006539 0.0000883 -0.0005626 0.0001267 -0.0007223 0.0000783 -0.0004977 0.0000796 -0.0007213 0.0001793 -0.0008566 0.0000479 -0.0009623 0.0001329 -0.0006858 0.0001993 -0.0002295 0.0001247 -0.0007365 0.0003326 -0.0008802 0.0001320 -0.0008320 0.0002645 -0.0005357 0.0003572 -0.0008964 0.0009590 -0.0010137 0.0007010 -0.0014595 0.0002258 -0.0010014 0.0000064 -0.0003186 0.0002503 -0.0009378 0.0003257 -0.0009656 0.0005330 -0.0005564 0.0005530 -0.0011765 0.0005840 -0.0012518 0.0000327 -0.0004419 0.0008800 -0.0017091 0.0002227 -0.0009955 -0.0017942 0.0008741 0.0004767 -0.0014542 0.0001105 -0.0011554 0.0005135 -0.0015797 0.0001062 -0.0007340 0.0003256 -0.0011653 -0.0003049 -0.0012315 0.0000600 -0.0006213 0.0002917 -0.0012488 -0.0001202 -0.0008643 0.0001354 -0.0003853 0.0001301 -0.0009798 0.0001330 -0.0005960 0.0002487 -0.0011100 0.0000835 -0.0013583 0.0000304 -0.0009635 0.0002536 -0.0011812 0.0001578 -0.0011147 0.0002098 -0.0008375 0.0001708 -0.0007918 -0.0000411 -0.0005624 -0.0000551 -0.0002779 0.0002278 -0.0006998 0.0000697 -0.0005050 0.0000773 -0.0007280 -0.0000484 -0.0005904 0.0002230 0.0001124 0.0002910 0.0004202 0.0002365 -0.0001382 0.0000459 -0.0003034 0.0001461 -0.0006564 -0.0001089 -0.0010439 0.0003231 -0.0007827 -0.0000056 -0.0003779 0.0001898 -0.0002768 0.0003524 -0.0014219 0.0004048 -0.0011252 0.0002733 -0.0007184 -0.0001935 -0.0003618 -0.0019812 0.0020856 0.0005216 -0.0006874 0.0001619 -0.0010971 0.0004047 -0.0010468 0.0002287 -0.0008790 0.0014338 -0.0018809 -0.0002778 -0.0003047 -0.0000483 -0.0004649 0.0001974 -0.0008532 0.0001203 -0.0004906 -0.0000567 -0.0006056 0.0001325 -0.0006163 0.0002644 -0.0007494 0.0001780 -0.0007854 0.0000474 -0.0002152 0.0007814 -0.0011047 -0.0000284 -0.0001477
-0.0001525 0.0006130 -0.0001182 0.0002578 0.0001640 -0.0003198 0.0002330 -0.0004706 0.0002985 -0.0007819 0.0000455 -0.0001823 0.0002457 0.0003468 0.0002264 -0.0003337 0.0005553 0.0004470 0.0003898 -0.0002223 0.0002439 -0.0005141 0.0002971 -0.0005384 0.0001673 -0.0005968 0.0000622 -0.0003230 0.0000963 -0.0003308 0.0001846 -0.0006288 0.0000704 -0.0006091 0.0001500 -0.0003106 0.0001970 -0.0000964 0.0001063 -0.0005450 0.0004189 -0.0007693 0.0002901 -0.0009715 0.0002848 -0.0002938 0.0003230 -0.0007045 0.0009858 -0.0008076 0.0007161 -0.0011048 0.0001547 -0.0007925 0.0001562 -0.0002696 0.0003320 -0.0008364 0.0001575 -0.0006918 0.0005369 -0.0005136 0.0005541 -0.0011031 0.0005930 -0.0011786 0.0000145 -0.0002519 0.0004461 -0.0008710 0.0004449 -0.0012522 0.0028137 -0.0017688 0.0005501 -0.0016643 0.0003883 -0.0012665 0.0004926 -0.0015394 0.0000343 -0.0006534 0.0000749 -0.0011660 -0.0001438 -0.0006910 0.0000781 -0.0005791 0.0003348 -0.0012545 -0.0002937 -0.0004908 0.0001385 -0.0002684 0.0001581 -0.0008209 0.0001014 -0.0003958 0.0001339 -0.0005814 -0.0005520 -0.0005561 -0.0000600 -0.0006999 0.0002453 -0.0008641 0.0000815 -0.0006992 0.0001654 -0.0005744 0.0002003 -0.0006026 0.0000282 -0.0004251 -0.0000418 -0.0001004 0.0001796 -0.0004726 0.0000131 -0.0002498 0.0001094 -0.0004607 -0.0000720 -0.0003314 0.0002150 0.0003286 0.0003054 0.0006046 0.0002393 0.0000497 0.0000392 -0.0000920 0.0001723 -0.0003724 0.0002063 -0.0010237 0.0003808 -0.0005354 0.0001209 -0.0003678 0.0002113 -0.0001819 -0.0002361 -0.0001207 0.0002440 -0.0008609 0.0003565 -0.0007308 0.0005022 -0.0008481 -0.0026201 0.0056613 0.0006558 0.0001077 0.0001404 -0.0010022 0.0003045 -0.0008437 0.0001738 -0.0007709 0.0010110 -0.0015809 0.0001442 -0.0006045 0.0002224 -0.0005377 -0.0000368 -0.0006043 0.0001109 -0.0002595 0.0002144 -0.0009801 0.0000250 -0.0005767 0.0001114 -0.0007358 0.0001388 -0.0007134 0.0000259 -0.0001269 0.0003249 -0.0008866 -0.0000418 -0.0002155
-0.0001492 0.0005967 -0.0001215 0.0002436 0.0001432 -0.0003402 0.0002273 -0.0005188 0.0002695 -0.0008479 0.0000393 -0.0002318 0.0002564 0.0003335 0.0003132 -0.0005527 0.0005866 0.0004739 0.0004073 -0.0002631 0.0001814 -0.0005701 0.0002170 -0.0006186 0.0002429 -0.0008018 0.0000488 -0.0004098 0.0000798 -0.0006323 0.0001919 -0.0007887 0.0000294 -0.0008192 0.0001408 -0.0006222 0.0001976 -0.0001699 0.0000978 -0.0005900 0.0003004 -0.0007326 0.0001662 -0.0009080 0.0002363 -0.0005649 0.0002931 -0.0008590 0.0009794 -0.0009170 0.0006901 -0.0015279 0.0001482 -0.0009541 0.0001688 -0.0005136 0.0003031 -0.0012835 -0.0000315 -0.0007196 0.0005315 -0.0006337 0.0005212 -0.0014602 0.0005803 -0.0012932 -0.0000102 -0.0003356 -0.0009192 -0.0002516 -0.0005434 -0.0006183 -0.0007810 -0.0012749 0.0005017 -0.0020441 0.0006461 -0.0018206 0.0004600 -0.0016525 0.0000400 -0.0008601 0.0002386 -0.0015304 -0.0000447 -0.0009782 0.0002261 -0.0010324 0.0000774 -0.0011223 -0.0005039 -0.0004049 0.0001315 -0.0003079 0.0001994 -0.0008246 0.0000650 -0.0004532 -0.0000220 -0.0006024 -0.0003571 -0.0013319 0.0001812 -0.0009699 0.0002209 -0.0009406 0.0003504 -0.0013382 0.0000560 -0.0007382 0.0001322 -0.0007175 -0.0000060 -0.0003533 -0.0000629 -0.0001086 0.0000689 -0.0004040 -0.0000459 -0.0002880 0.0000771 -0.0007930 -0.0000645 -0.0004457 0.0001963 0.0002203 0.0003017 0.0004883 0.0002482 -0.0000602 0.0000174 -0.0002880 0.0001974 -0.0006310 0.0006915 -0.0010465 0.0002901 -0.0005935 -0.0000933 -0.0004873 0.0002617 -0.0004235 -0.0001992 0.0001978 0.0002087 -0.0010121 0.0000760 -0.0007475 0.0009612 -0.0019017 0.0007047 -0.0012917 0.0014629 -0.0017677 0.0001025 -0.0011941 0.0001224 -0.0009670 0.0002464 -0.0010842 0.0005735 -0.0005732 0.0008949 -0.0013867 0.0001789 -0.0010384 -0.0002125 -0.0005571 0.0000354 -0.0002400 0.0002627 -0.0010708 0.0000725 -0.0009190 0.0001431 -0.0010516 0.0001126 -0.0008327 0.0000416 -0.0002268 -0.0000652 -0.0009412 -0.0000796 -0.0004222
