-0.0000000 -0.0000000 -0.0000000 -0.0000000 -0.0000000 -0.0000000 -0.0000000 -0.0000000 -0.0000000 -0.0000000 -0.0000000 -0.0000000 -0.0000000 -0.0000000 -0.0000000 -0.0000000 -0.0000000 -0.0000000 -0.0000000 -0.0000000 -0.0000000 -0.0000000 -0.0000000 -0.0000000 -0.0000000 -0.0000000 -0.0000000 -0.0000000 -0.0000000 -0.0000000 -0.0000000 -0.0000000 -0.0000000 -0.0000000 -0.0000000 -0.0000000 -0.0000000 -0.0000000 -0.0000000 -0.0000000 -0.0000000 -0.0000000 -0.0000000 -0.0000000 -0.0000000 -0.0000000 -0.0000000 -0.0000000 -0.0000000 -0.0000000 -0.0000000 -0.0000000 -0.0000000 -0.0000000 -0.0000000 -0.0000000 -0.0000000 -0.0000000 -0.0000000 -0.0000000 -0.0000000 -0.0000000 -0.0000000 -0.0000000 -0.0000000 -0.0000000 -0.0000000 -0.0000000 -0.0000000 -0.0000000 -0.0000000 -0.0000000 -0.0000000 -0.0000000 -0.0000000 -0.0000000 -0.0000000 -0.0000000 -0.0000000 -0.0000000 -0.0000000 -0.0000000 -0.0000000 -0.0000000 -0.0000000 -0.0000000 -0.0000000 -0.0000000 -0.0000000 -0.0000000 -0.0000000 -0.0000000 -0.0000000 -0.0000000 -0.0000000 -0.0000000 -0.0000000 -0.0000000 -0.0000000 -0.0000000 -0.0000000 -0.0000000 -0.0000000 -0.0000000 -0.0000000 -0.0000000 -0.0000000 -0.0000000 -0.0000000 -0.0000000 -0.0000000 -0.0000000 -0.0000000 -0.0000000 -0.0000000 -0.0000000 -0.0000000 -0.0000000 -0.0000000 -0.0000000 -0.0000000 -0.0000000 -0.0000000 -0.0000000 -0.0000000 -0.0000000 -0.0000000 -0.0000000 -0.0000000 -0.0000000 -0.0000000 -0.0000000 -0.0000000 -0.0000000 -0.0000000 -0.0000000 -0.0000000 -0.0000000 -0.0000000 -0.0000000 -0.0000000 -0.0000000 -0.0000000 -0.0000000 -0.0000000 -0.0000000 -0.0000000 -0.0000000 -0.0000000 -0.0000000 -0.0000000 -0.0000000 -0.0000000 -0.0000000 -0.0000000 -0.0000000 -0.0000000 -0.0000000 -0.0000000 -0.0000000 -0.0000000 -0.0000000 -0.0000000 -0.0000000 -0.0000000 -0.0000000 -0.0000000 -0.0000000 -0.0000000 -0.0000000 -0.0000000 -0.0000000 -0.0000000 -0.0000000 -0.0000000 -0.0000000 -0.0000000 -0.0000000 -0.0000000 -0.0000000 -0.0000000 -0.0000000 -0.0000000 -0.0000000
-0.0000000 -0.0000000 -0.0000000 -0.0000000 -0.0000000 -0.0000000 -0.0000000 -0.0000000 -0.0000000 -0.0000000 -0.0000000 -0.0000000 -0.0000000 -0.0000000 -0.0000000 -0.0000000 -0.0000000 -0.0000000 -0.0000000 -0.0000000 -0.0000000 -0.0000000 -0.0000000 -0.0000000 -0.0000000 -0.0000000 -0.0000000 -0.0000000 -0.0000000 -0.0000000 -0.0000000 -0.0000000 -0.0000000 -0.0000000 -0.0000000 -0.0000000 -0.0000000 -0.0000000 -0.0000000 -0.0000000 -0.0000000 -0.0000000 -0.0000000 -0.0000000 -0.0000000 -0.0000000 -0.0000000 -0.0000000 -0.0000000 -0.0000000 -0.0000000 -0.0000000 -0.0000000 -0.0000000 -0.0000000 -0.0000000 -0.0000000 -0.0000000 -0.0000000 -0.0000000 -0.0000000 -0.0000000 -0.0000000 -0.0000000 -0.0000000 -0.0000000 -0.0000000 -0.0000000 -0.0000000 -0.0000000 -0.0000000 -0.0000000 -0.0000000 -0.0000000 -0.0000000 -0.0000000 -0.0000000 -0.0000000 -0.0000000 -0.0000000 -0.0000000 -0.0000000 -0.0000000 -0.0000000 -0.0000000 -0.0000000 -0.0000000 -0.0000000 -0.0000000 -0.0000000 -0.0000000 -0.0000000 -0.0000000 -0.0000000 -0.0000000 -0.0000000 -0.0000000 -0.0000000 -0.0000000 -0.0000000 -0.0000000 -0.0000000 -0.0000000 -0.0000000 -0.0000000 -0.0000000 -0.0000000 -0.0000000 -0.0000000 -0.0000000 -0.0000000 -0.0000000 -0.0000000 -0.0000000 -0.0000000 -0.0000000 -0.0000000 -0.0000000 -0.0000000 -0.0000000 -0.0000000 -0.0000000 -0.0000000 -0.0000000 -0.0000000 -0.0000000 -0.0000000 -0.0000000 -0.0000000 -0.0000000 -0.0000000 -0.0000000 -0.0000000 -0.0000000 -0.0000000 -0.0000000 -0.0000000 -0.0000000 -0.0000000 -0.0000000 -0.0000000 -0.0000000 -0.0000000 -0.0000000 -0.0000000 -0.0000000 -0.0000000 -0.0000000 -0.0000000 -0.0000000 -0.0000000 -0.0000000 -0.0000000 -0.0000000 -0.0000000 -0.0000000 -0.0000000 -0.0000000 -0.0000000 -0.0000000 -0.0000000 -0.0000000 -0.0000000 -0.0000000 -0.0000000 -0.0000000 -0.0000000 -0.0000000 -0.0000000 -0.0000000 -0.0000000 -0.0000000 -0.0000000 -0.0000000 -0.0000000 -0.0000000 -0.0000000 -0.0000000 -0.0000000 -0.0000000 -0.0000000 -0.0000000 -0.0000000 -0.0000000
-0.0000024 0.0000066 -0.0000262 0.0000424 -0.0000093 -0.0000187 -0.0000132 0.0000301 0.0000131 -0.0000364 0.0000220 -0.0001353 0.0000514 -0.0001622 0.0000038 -0.0000067 0.0000271 0.0000401 -0.0000351 0.0000282 -0.0000462 0.0001174 0.0000436 -0.0000330 -0.0000438 -0.0001509 0.0001262 -0.0002426 0.0000092 -0.0000958 0.0000221 -0.0000587 -0.0001205 0.0003724 -0.0000002 -0.0001878 0.0000927 -0.0001782 -0.0001162 0.0001747 0.0001047 -0.0000315 0.0000528 -0.0002140 -0.0000325 0.0002652 0.0000987 -0.0002675 -0.0004104 0.0003040 0.0000395 -0.0000616 -0.0001728 0.0002919 -0.0001188 0.0002170 -0.0002798 0.0002771 -0.0000680 0.0002039 0.0001297 -0.0000189 0.0000291 -0.0000607 0.0000035 -0.0000062 -0.0001464 0.0004682 -0.0000207 0.0000341 0.0000131 -0.0000585 -0.0001165 0.0002172 -0.0002767 0.0003517 0.0003185 -0.0010526 -0.0000025 0.0000023 0.0000291 -0.0001272 0.0000666 0.0002670 0.0000522 -0.0002053 0.0001373 -0.0002573 0.0001465 -0.0001997 -0.0002085 0.0006968 0.0000234 -0.0000259 0.0000586 0.0000453 -0.0000865 0.0001980 0.0000104 -0.0000196 0.0002462 -0.0011196 0.0000582 -0.0000492 0.0000903 -0.0002137 0.0000095 -0.0000553 0.0000231 0.0001086 -0.0000325 0.0001030 -0.0000695 -0.0001619 0.0000196 0.0000653 -0.0000140 0.0001329 0.0000333 -0.0000289 0.0000595 -0.0000889 -0.0000503 0.0001245 0.0001841 -0.0002861 -0.0000292 0.0000444 -0.0000076 0.0000118 -0.0002766 0.0008617 -0.0000603 0.0002152 -0.0000639 0.0001383 0.0000725 -0.0001216 0.0000050 0.0000155 0.0000293 -0.0000906 0.0005236 -0.0009405 0.0001164 -0.0002462 -0.0000182 -0.0000002 -0.0003031 0.0001208 -0.0000746 0.0001166 0.0000258 0.0000054 -0.0000098 0.0000538 0.0000607 -0.0001631 -0.0001112 0.0001320 -0.0000605 0.0001919 -0.0000375 0.0000673 0.0001470 -0.0002227 -0.0000085 0.0000141 0.0001577 -0.0003392 -0.0001085 0.0002326 0.0001502 -0.0000584 -0.0000404 0.0000391 -0.0000333 0.0001543 -0.0004525 0.0013579 0.0000495 -0.0000103 0.0001519 -0.0000007
-0.0000031 0.0000070 -0.0000539 0.0001010 0.0000149 -0.0000565 -0.0000002 0.0000018 0.0000118 -0.0001536 0.0000338 -0.0001873 -0.0000519 0.0001149 -0.0000291 0.0000538 0.0000657 -0.0000344 -0.0000126 0.0000182 -0.0000549 0.0002222 0.0001256 -0.0002540 -0.0001390 -0.0001326 0.0000043 -0.0000254 -0.0001492 -0.0000558 -0.0000521 0.0001004 -0.0001508 0.0009741 0.0001236 -0.0001755 -0.0000887 0.0002985 -0.0001023 0.0001803 0.0002363 -0.0003616 0.0001446 -0.0003354 0.0001347 -0.0002266 -0.0000304 0.0001086 -0.0001140 -0.0002057 0.0000440 0.0000072 -0.0000799 0.0001072 0.0002246 -0.0004410 -0.0002298 0.0001366 0.0000396 -0.0000086 0.0001666 -0.0000284 0.0000510 -0.0002133 -0.0000012 0.0000027 0.0000928 -0.0002091 -0.0001518 0.0000867 -0.0000777 -0.0000216 -0.0001717 0.0004843 0.0001134 -0.0004416 0.0000116 0.0002077 -0.0000531 0.0000663 -0.0000374 -0.0000408 0.0001303 -0.0003593 0.0002994 -0.0007115 0.0001566 -0.0003034 0.0001172 -0.0001430 0.0002498 -0.0005406 -0.0000474 0.0000334 0.0000114 0.0000162 -0.0000823 0.0001574 0.0000207 -0.0000641 -0.0002797 0.0006059 -0.0000311 -0.0000946 0.0000858 -0.0000971 -0.0000100 -0.0000142 -0.0000973 -0.0000295 -0.0000839 0.0001523 -0.0001056 0.0001587 -0.0001529 0.0001851 -0.0000276 0.0001321 0.0000364 -0.0000359 0.0000509 -0.0000289 -0.0000410 0.0001311 -0.0000542 0.0001317 -0.0001232 0.0001649 -0.0000066 0.0000169 -0.0001567 0.0000946 -0.0001055 0.0003489 0.0000030 -0.0000344 -0.0000379 0.0000436 -0.0000358 0.0000965 0.0001274 -0.0001224 0.0002886 -0.0004280 0.0001328 -0.0001264 -0.0000533 0.0000639 -0.0004586 0.0003336 -0.0000752 0.0001787 0.0000157 0.0000290 0.0000225 -0.0000820 -0.0000417 0.0001045 -0.0002192 0.0002282 -0.0000568 0.0001479 0.0000260 0.0000537 0.0000684 -0.0000116 -0.0000301 0.0000817 0.0002941 -0.0002351 -0.0000834 0.0001141 0.0002132 -0.0002094 -0.0000295 -0.0000404 -0.0002356 0.0002916 0.0008186 -0.0005429 0.0000366 -0.0001093 -0.0000140 0.0001819
-0.0000091 0.0000168 -0.0000315 0.0000767 -0.0000071 -0.0000836 0.0000125 -0.0000256 -0.0000404 -0.0000112 0.0001789 -0.0005784 -0.0002132 0.0004825 -0.0000354 0.0000636 0.0000331 -0.0001206 0.0000218 -0.0000588 0.0000852 -0.0001821 0.0000551 -0.0000613 -0.0001391 -0.0001394 0.0000853 -0.0003698 0.0000640 -0.0001840 0.0000386 -0.0000489 0.0002691 0.0000037 -0.0000195 0.0002865 -0.0001677 0.0004985 -0.0000030 0.0001218 0.0001616 -0.0002023 0.0000218 0.0000489 -0.0005005 0.0007298 -0.0000843 0.0002508 0.0000938 -0.0003430 0.0000216 -0.0001216 0.0000547 -0.0004908 0.0001843 -0.0005081 -0.0003147 0.0002888 0.0003487 -0.0007564 -0.0000732 0.0002710 -0.0000823 0.0000003 0.0000074 -0.0000138 0.0000389 0.0000148 0.0001218 -0.0002000 -0.0000451 0.0000091 -0.0000809 0.0002497 -0.0000760 -0.0002396 -0.0007684 0.0020548 0.0000402 -0.0000528 -0.0001135 0.0002519 0.0001993 -0.0004415 0.0000178 -0.0000811 0.0003574 -0.0006878 0.0000335 -0.0001177 0.0002208 -0.0006259 -0.0000950 0.0001335 -0.0000283 0.0001379 -0.0000836 0.0001518 0.0000343 -0.0000185 -0.0002836 0.0014017 -0.0000480 -0.0000261 -0.0000589 0.0001764 0.0000023 -0.0000380 -0.0002846 0.0001793 0.0000623 -0.0001345 0.0005523 -0.0009842 -0.0000788 0.0001440 -0.0000353 0.0001137 0.0000431 -0.0000401 -0.0001209 0.0000214 -0.0000607 -0.0000003 -0.0000775 0.0001711 0.0001187 -0.0001539 0.0000139 -0.0000215 0.0001707 -0.0006206 -0.0000068 0.0000522 0.0000549 -0.0002027 -0.0001242 0.0001718 -0.0000577 0.0000836 -0.0001646 0.0003797 -0.0001080 0.0002182 -0.0000016 -0.0000292 0.0000072 -0.0000399 0.0001242 0.0000029 0.0000265 -0.0000229 0.0000386 -0.0000795 0.0000512 -0.0001513 -0.0001491 0.0002296 -0.0000389 0.0000744 -0.0000292 0.0000383 -0.0000268 0.0000696 0.0000506 -0.0001081 -0.0000286 0.0000781 0.0006063 -0.0013286 0.0000816 -0.0002498 0.0000795 0.0001790 0.0001190 -0.0002523 -0.0000176 0.0000356 0.0006077 0.0001196 -0.0000302 0.0000151 0.0001396 0.0002444
0.0000042 -0.0000077 0.0000655 -0.0001427 -0.0000594 0.0000356 0.0000179 -0.0000408 0.0000044 0.0000990 -0.0002055 0.0002613 0.0000410 -0.0000343 -0.0000541 0.0000994 0.0000919 -0.0001542 -0.0000554 0.0000668 -0.0000583 -0.0001240 -0.0000043 0.0001069 -0.0000239 -0.0003892 0.0000303 -0.0004171 -0.0000585 0.0001379 0.0000693 -0.0000823 0.0008399 -0.0018753 -0.0001960 0.0006670 -0.0000228 -0.0000253 0.0000835 -0.0002120 0.0001439 -0.0001227 -0.0000110 0.0000889 -0.0001661 0.0005612 -0.0000726 0.0001255 0.0001546 0.0002480 -0.0001572 0.0001955 -0.0003145 0.0000954 -0.0000939 -0.0000713 -0.0001888 0.0002231 0.0004192 -0.0007998 -0.0000133 -0.0000472 -0.0001074 0.0001292 0.0000055 -0.0000103 0.0003399 -0.0005286 0.0002252 -0.0002131 0.0000513 -0.0001214 -0.0000720 0.0003231 0.0002894 -0.0002509 -0.0013396 0.0023092 0.0000349 -0.0000433 -0.0000799 0.0001548 0.0000642 -0.0002083 -0.0002180 0.0005319 0.0005107 -0.0009923 0.0000732 -0.0000705 -0.0001696 0.0008993 -0.0000708 0.0001169 -0.0000422 0.0000867 -0.0000820 0.0000927 -0.0000126 0.0000567 -0.0004158 0.0008383 0.0000558 -0.0000953 -0.0003147 0.0007208 0.0001473 -0.0003405 -0.0001776 0.0002172 0.0001354 -0.0002347 0.0009734 -0.0022241 -0.0002103 0.0000942 -0.0000196 -0.0000089 0.0000339 -0.0000324 -0.0000023 -0.0000199 -0.0000482 -0.0000356 -0.0001116 0.0001673 0.0001783 -0.0002363 0.0000052 -0.0000098 -0.0003164 0.0007332 0.0003793 -0.0005174 0.0000177 -0.0000721 -0.0001284 0.0002413 -0.0000318 0.0000710 -0.0002083 0.0004213 -0.0001278 0.0003079 0.0000988 -0.0002334 0.0000123 -0.0000750 0.0003097 -0.0000165 0.0000560 -0.0001592 0.0000787 -0.0001530 -0.0000379 0.0001347 -0.0001716 0.0002125 -0.0001297 0.0002877 0.0000111 0.0000748 0.0000012 0.0000176 0.0000170 -0.0000360 -0.0000306 0.0000465 0.0006299 -0.0012312 -0.0000832 0.0001305 -0.0000265 0.0004416 -0.0000129 0.0001000 0.0000604 0.0001600 0.0005302 -0.0000888 0.0000081 0.0000905 0.0002001 0.0001041
